##TITLE= STDCISTEINA
##JCAMP-DX= 4.24
##DATA TYPE= INFRARED SPECTRUM
##ORIGIN= JASCO
##OWNER= 
##DATE= 22/05/03
##TIME= 14:49:51
##SPECTROMETER/DATA SYSTEM= 
##RESOLUTION= 
##DELTAX=   0.48211674
##XUNITS= 1/CM
##YUNITS= TRANSMITTANCE
##XFACTOR= 1.00000
##YFACTOR= 0.0001
##FIRSTX=   599.7532
##LASTX=  4000.1226
##NPOINTS=     7054
##FIRSTY=      0.66931
##MAXY=      1.25997
##MINY=      0.53767
##XYDATA= (X++(Y..Y))
599.7532 6693 6665 6656 6667 6695 6733 6769 6792 6792 6767 6723 6675 6633 6606
606.5029 6595 6596 6604 6617 6637 6665 6701 6738 6768 6785 6786 6775 6761 6752
613.2525 6756 6775 6809 6853 6900 6942 6970 6979 6969 6943 6913 6885 6865 6856
620.0021 6854 6855 6855 6850 6841 6833 6831 6839 6852 6862 6860 6844 6819 6797
626.7518 6789 6799 6823 6852 6873 6877 6864 6837 6808 6789 6790 6815 6859 6909
633.5014 6952 6975 6972 6946 6907 6868 6840 6829 6830 6839 6849 6855 6857 6855
640.2510 6849 6841 6838 6846 6870 6907 6948 6975 6975 6947 6900 6853 6824 6821
647.0007 6844 6884 6929 6969 6998 7014 7016 7008 6996 6989 6992 7007 7030 7053
653.7503 7065 7062 7046 7026 7012 7010 7019 7036 7051 7057 7046 7019 6983 6949
660.4999 6931 6939 6978 7044 7125 7208 7285 7355 7419 7482 7544 7605 7665 7724
667.2496 7788 7863 7948 8013 8051 8079 8105 8130 8154 8176 8194 8205 8208 8205
673.9992 8201 8202 8214 8235 8256 8266 8256 8224 8180 8134 8099 8080 8073 8072
680.7488 8068 8056 8037 8018 8007 8008 8024 8051 8086 8125 8169 8219 8272 8326
687.4985 8376 8417 8447 8471 8494 8519 8546 8573 8594 8608 8616 8622 8629 8642
694.2481 8659 8679 8700 8720 8739 8759 8783 8812 8845 8879 8909 8930 8941 8946
700.9977 8949 8957 8973 8994 9015 9030 9033 9026 9012 8997 8984 8977 8976 8979
707.7474 8986 8995 9003 9007 9007 9002 8994 8986 8981 8980 8983 8986 8986 8981
714.4970 8974 8967 8963 8963 8967 8975 8989 9014 9053 9110 9177 9237 9271 9269
721.2466 9235 9188 9148 9125 9123 9136 9156 9173 9180 9170 9138 9087 9026 8972
727.9963 8945 8952 8989 9032 9054 9031 8960 8858 8754 8679 8646 8653 8682 8709
734.7459 8713 8685 8633 8572 8521 8500 8518 8579 8679 8807 8955 9119 9301 9508
741.4955 9746 10018 10326 10665 11026 11388 11713 11959 12096 12129 12100
746.7988 12073 12100 12196 12334 12467 12558 12597 12600 12585 12554 12498
752.1021 12405 12280 12142 12013 11903 11809 11719 11627 11537 11463 11417
757.4054 11396 11372 11310 11188 11024 10864 10753 10717 10756 10847 10950
762.7087 11025 11052 11040 11012 10983 10946 10882 10779 10640 10476 10299
768.0120 10111 9902 9667 9406 9133 8865 8615 8387 8175 7970 7769 7574 7393
774.2795 7236 7106 7003 6924 6865 6829 6821 6845 6901 6984 7085 7198 7318 7441
781.0291 7564 7680 7782 7866 7931 7980 8021 8060 8099 8137 8168 8190 8202 8207
787.7787 8210 8218 8235 8261 8294 8331 8369 8403 8431 8452 8464 8467 8466 8462
794.5284 8461 8465 8474 8486 8494 8495 8483 8462 8435 8410 8391 8381 8379 8379
801.2780 8377 8368 8350 8325 8295 8264 8234 8209 8189 8175 8161 8144 8119 8086
808.0276 8047 8007 7971 7939 7910 7877 7837 7786 7725 7658 7589 7523 7467 7424
814.7773 7396 7383 7382 7387 7392 7390 7380 7362 7339 7317 7299 7289 7288 7294
821.5269 7305 7317 7326 7329 7322 7304 7275 7237 7191 7141 7091 7042 6996 6952
828.2766 6911 6873 6840 6811 6786 6764 6741 6716 6690 6663 6638 6617 6600 6586
835.0262 6575 6568 6566 6572 6587 6614 6650 6694 6743 6796 6853 6915 6980 7049
841.7758 7117 7181 7241 7298 7353 7409 7467 7525 7583 7637 7688 7735 7780 7824
848.5255 7867 7907 7942 7970 7990 8001 8004 8002 7996 7988 7978 7970 7966 7964
855.2751 7965 7965 7961 7949 7930 7903 7870 7830 7781 7722 7649 7565 7470 7368
862.0247 7259 7146 7028 6905 6779 6654 6533 6418 6311 6215 6133 6068 6026 6009
868.7744 6019 6056 6120 6210 6328 6472 6639 6822 7013 7204 7390 7567 7737 7899
875.5240 8053 8195 8322 8430 8518 8587 8644 8694 8743 8793 8844 8892 8931 8960
882.2736 8979 8990 8997 9002 9007 9013 9021 9032 9047 9066 9089 9113 9138 9161
889.0233 9182 9200 9213 9224 9235 9249 9268 9293 9320 9346 9366 9378 9386 9391
895.7729 9397 9403 9410 9416 9418 9416 9411 9404 9398 9393 9390 9389 9387 9385
902.5225 9382 9380 9380 9379 9378 9373 9367 9360 9354 9352 9352 9353 9352 9345
909.2722 9333 9317 9300 9287 9279 9277 9278 9280 9277 9268 9253 9233 9214 9196
916.0218 9179 9163 9144 9123 9101 9082 9067 9057 9048 9038 9024 9006 8984 8958
922.7714 8930 8900 8866 8830 8793 8756 8718 8680 8639 8595 8549 8503 8460 8423
929.5211 8393 8371 8359 8357 8367 8391 8428 8477 8535 8599 8665 8728 8786 8836
936.2707 8878 8911 8939 8962 8982 8999 9013 9022 9029 9033 9036 9038 9037 9033
943.0203 9021 9001 8972 8936 8896 8855 8817 8784 8755 8733 8718 8713 8717 8733
949.7700 8759 8792 8829 8867 8905 8942 8977 9011 9043 9071 9093 9107 9113 9115
956.5196 9114 9113 9112 9111 9108 9102 9093 9081 9070 9061 9054 9049 9045 9040
963.2692 9034 9027 9018 9007 8996 8984 8973 8964 8956 8950 8945 8942 8939 8938
970.0189 8937 8938 8940 8943 8946 8948 8947 8942 8933 8922 8911 8901 8893 8884
976.7685 8872 8854 8828 8797 8764 8735 8711 8693 8677 8660 8638 8613 8585 8558
983.5181 8534 8511 8487 8459 8424 8383 8338 8294 8256 8226 8206 8192 8183 8178
990.2678 8179 8189 8208 8238 8274 8315 8357 8400 8445 8492 8542 8594 8644 8688
997.0174 8725 8753 8777 8798 8820 8841 8860 8874 8881 8881 8877 8872 8869 8868
1003.7670 8869 8870 8867 8860 8849 8834 8817 8801 8786 8773 8762 8751 8740
1010.0345 8729 8719 8709 8700 8690 8679 8667 8655 8645 8638 8634 8629 8622
1016.3021 8609 8592 8573 8556 8542 8533 8525 8517 8507 8495 8482 8471 8461
1022.5696 8451 8442 8432 8422 8414 8410 8408 8408 8410 8412 8413 8415 8416
1028.8372 8417 8419 8424 8431 8439 8445 8448 8446 8438 8427 8416 8405 8394
1035.1046 8383 8372 8361 8350 8339 8326 8310 8289 8266 8243 8223 8207 8194
1041.3722 8184 8172 8159 8143 8126 8110 8096 8086 8080 8076 8074 8071 8064
1047.6396 8054 8037 8015 7987 7955 7918 7878 7833 7784 7730 7668 7599 7522
1053.9072 7436 7343 7245 7145 7048 6958 6878 6814 6766 6739 6732 6746 6780
1060.1747 6833 6904 6991 7090 7197 7304 7407 7501 7587 7663 7733 7795 7850
1066.4423 7896 7934 7964 7991 8016 8041 8065 8085 8097 8099 8094 8084 8070
1072.7097 8055 8038 8022 8006 7995 7989 7989 7991 7994 7992 7984 7971 7954
1078.9773 7932 7908 7881 7851 7819 7785 7749 7713 7675 7638 7602 7568 7538
1085.2448 7512 7491 7475 7465 7458 7452 7445 7437 7426 7413 7397 7376 7350
1091.5123 7318 7282 7243 7204 7163 7120 7078 7036 7000 6973 6955 6945 6939
1097.7798 6934 6927 6917 6904 6888 6870 6849 6826 6798 6766 6729 6687 6644
1104.0474 6602 6566 6536 6515 6501 6497 6503 6522 6552 6594 6646 6707 6778
1110.3148 6860 6950 7049 7152 7257 7362 7464 7563 7655 7739 7812 7873 7923
1116.5824 7964 7996 8022 8041 8053 8058 8057 8053 8047 8040 8033 8026 8017
1122.8499 8005 7988 7963 7931 7891 7847 7799 7752 7706 7661 7618 7575 7533
1129.1174 7492 7451 7413 7380 7352 7331 7313 7297 7280 7261 7241 7221 7201
1135.3849 7182 7162 7140 7116 7092 7069 7051 7038 7033 7038 7054 7083 7127
1141.6525 7188 7264 7353 7451 7554 7660 7764 7864 7959 8045 8122 8188 8245
1147.9199 8293 8333 8366 8394 8418 8440 8461 8483 8505 8525 8542 8553 8557
1154.1875 8555 8548 8537 8523 8508 8491 8474 8455 8434 8411 8386 8358 8327
1160.4550 8292 8255 8219 8187 8159 8136 8115 8093 8068 8040 8009 7978 7948
1166.7225 7919 7891 7862 7832 7801 7769 7739 7710 7681 7653 7625 7595 7564
1172.9900 7532 7499 7464 7429 7392 7356 7320 7286 7252 7220 7188 7157 7125
1179.2576 7091 7056 7020 6983 6945 6909 6873 6838 6801 6761 6719 6676 6632
1185.5250 6590 6549 6508 6466 6421 6372 6321 6270 6220 6173 6130 6091 6055
1191.7926 6022 5989 5956 5922 5889 5859 5831 5806 5783 5760 5737 5712 5686
1198.0601 5658 5629 5599 5567 5535 5502 5471 5442 5417 5397 5384 5377 5377
1204.3276 5383 5396 5419 5450 5493 5548 5613 5687 5768 5851 5934 6012 6080
1210.5951 6136 6174 6194 6193 6172 6133 6078 6010 5933 5851 5768 5686 5611
1216.8627 5544 5488 5446 5418 5405 5409 5431 5470 5525 5595 5677 5769 5869
1223.1301 5978 6095 6220 6352 6489 6627 6763 6896 7023 7146 7264 7378 7488
1229.3977 7598 7708 7820 7933 8047 8159 8268 8371 8468 8556 8633 8699 8754
1235.6652 8797 8830 8854 8870 8880 8885 8888 8891 8897 8907 8922 8942 8966
1241.9327 8993 9021 9050 9079 9109 9141 9174 9208 9238 9266 9289 9310 9330
1248.2002 9354 9381 9413 9448 9487 9528 9573 9620 9670 9724 9779 9835 9891
1254.4678 9945 9999 10050 10102 10152 10201 10247 10287 10319 10344 10361
1259.7710 10372 10377 10373 10357 10327 10285 10232 10170 10102 10033 9971
1265.0743 9929 9917 9936 9973 9997 9970 9875 9730 9581 9466 9404 9398 9442
1271.3418 9519 9612 9702 9781 9847 9901 9946 9981 10004 10014 10011 9997 9975
1277.6094 9947 9915 9880 9843 9805 9765 9721 9676 9629 9582 9535 9489 9445
1283.8768 9402 9361 9321 9282 9244 9205 9167 9130 9097 9068 9046 9030 9020
1290.1444 9013 9009 9005 9001 8996 8992 8988 8986 8986 8989 8994 9000 9007
1296.4119 9013 9019 9023 9027 9032 9038 9045 9054 9064 9077 9090 9104 9116
1302.6794 9127 9134 9137 9135 9128 9117 9100 9081 9060 9039 9019 9001 8984
1308.9469 8969 8953 8937 8921 8906 8893 8883 8877 8876 8878 8884 8894 8907
1315.2145 8922 8939 8956 8973 8990 9007 9028 9052 9077 9103 9125 9143 9157
1321.4819 9169 9180 9189 9196 9201 9203 9203 9202 9201 9202 9203 9206 9208
1327.7495 9211 9212 9212 9211 9209 9206 9201 9195 9188 9178 9168 9158 9147
1334.0170 9137 9125 9110 9092 9070 9046 9020 8994 8971 8951 8934 8918 8903
1340.2845 8886 8866 8841 8812 8780 8743 8704 8663 8621 8577 8533 8487 8441
1346.5520 8395 8351 8311 8276 8249 8234 8233 8247 8275 8315 8363 8416 8469
1352.8196 8519 8565 8607 8643 8673 8696 8712 8721 8723 8722 8717 8712 8707
1359.0870 8707 8712 8724 8740 8761 8783 8806 8828 8848 8863 8874 8881 8887
1365.3546 8891 8894 8896 8897 8897 8895 8891 8886 8878 8869 8857 8844 8829
1371.6221 8813 8798 8783 8770 8758 8747 8734 8721 8706 8690 8673 8654 8632
1377.8896 8607 8580 8553 8526 8499 8472 8443 8412 8379 8343 8307 8270 8232
1384.1571 8196 8160 8126 8092 8055 8013 7962 7906 7850 7798 7747 7696 7641
1390.4247 7580 7517 7453 7391 7331 7270 7203 7125 7035 6939 6852 6782 6729
1396.6921 6689 6659 6641 6640 6660 6698 6746 6796 6849 6911 6987 7080 7190
1402.9597 7319 7469 7646 7848 8060 8252 8401 8507 8580 8634 8677 8711 8739
1409.2272 8757 8768 8772 8769 8759 8742 8718 8688 8654 8618 8579 8538 8495
1415.4948 8450 8403 8357 8314 8274 8236 8192 8136 8069 8003 7947 7901 7860
1421.7622 7817 7768 7708 7635 7554 7472 7400 7338 7283 7232 7186 7146 7116
1428.0298 7098 7092 7101 7125 7161 7206 7254 7303 7355 7412 7473 7534 7588
1434.2972 7633 7668 7700 7734 7782 7842 7906 7964 8019 8077 8141 8211 8284
1440.5648 8356 8422 8482 8535 8584 8627 8665 8696 8722 8741 8757 8769 8779
1446.8323 8788 8797 8804 8809 8810 8807 8803 8798 8793 8789 8785 8781 8775
1453.0999 8768 8759 8751 8743 8738 8739 8745 8758 8771 8775 8770 8760 8748
1459.3673 8738 8728 8720 8712 8705 8698 8692 8686 8680 8675 8670 8664 8656
1465.6349 8646 8636 8626 8616 8606 8595 8582 8567 8551 8535 8518 8501 8483
1471.9023 8461 8436 8412 8392 8378 8367 8357 8347 8333 8318 8300 8281 8263
1478.1699 8244 8225 8204 8182 8157 8130 8099 8066 8033 8000 7966 7932 7897
1484.4374 7862 7826 7791 7754 7714 7671 7627 7589 7556 7525 7487 7434 7372
1490.7050 7312 7264 7223 7183 7141 7096 7052 7009 6966 6917 6857 6790 6729
1496.9724 6684 6655 6633 6612 6590 6568 6546 6524 6500 6472 6442 6413 6389
1503.2400 6372 6360 6353 6348 6346 6347 6353 6363 6370 6374 6378 6384 6392
1509.5074 6399 6403 6404 6399 6388 6371 6351 6331 6313 6298 6284 6271 6259
1515.7750 6247 6238 6238 6246 6263 6285 6311 6342 6380 6427 6491 6576 6676
1522.0425 6768 6845 6912 6977 7050 7140 7253 7384 7517 7643 7764 7891 8028
1528.3101 8170 8301 8415 8510 8594 8672 8745 8814 8879 8944 9013 9081 9137
1534.5775 9175 9200 9219 9234 9249 9263 9277 9289 9302 9316 9325 9325 9321
1540.8451 9316 9312 9307 9299 9288 9276 9264 9252 9238 9222 9207 9193 9181
1547.1125 9169 9158 9145 9131 9114 9096 9078 9061 9046 9032 9019 9007 8995
1553.3801 8980 8962 8941 8919 8900 8882 8867 8852 8838 8826 8815 8785 8713
1559.6476 8632 8567 8517 8476 8441 8406 8371 8332 8288 8239 8186 8134 8088
1565.9152 8050 8019 7993 7971 7952 7937 7934 7948 7976 8007 8034 8060 8090
1572.1826 8128 8174 8223 8269 8310 8349 8396 8465 8559 8653 8718 8757 8785
1578.4502 8811 8840 8870 8900 8929 8956 8981 9005 9027 9046 9061 9071 9078
1584.7177 9083 9086 9089 9091 9092 9090 9086 9080 9072 9064 9055 9046 9036
1590.9852 9026 9015 9004 8992 8981 8970 8961 8954 8951 8951 8953 8955 8956
1597.2528 8954 8951 8944 8937 8928 8920 8912 8903 8894 8884 8873 8861 8848
1603.5203 8836 8823 8810 8796 8781 8767 8754 8744 8735 8727 8718 8708 8697
1609.7878 8687 8678 8670 8662 8653 8643 8632 8619 8605 8591 8577 8562 8546
1616.0553 8526 8500 8471 8444 8421 8400 8380 8362 8345 8332 8322 8316 8315
1622.3229 8320 8334 8356 8380 8398 8410 8418 8426 8437 8454 8477 8505 8531
1628.5903 8549 8558 8563 8567 8572 8577 8582 8585 8583 8578 8570 8563 8560
1634.8579 8568 8587 8606 8614 8610 8600 8587 8574 8560 8546 8532 8519 8505
1641.1254 8491 8476 8460 8442 8423 8405 8388 8376 8370 8375 8395 8430 8471
1647.3929 8508 8538 8561 8578 8592 8603 8612 8619 8627 8639 8661 8715 8794
1653.6604 8836 8840 8834 8827 8820 8814 8808 8803 8797 8793 8789 8785 8780
1659.9280 8774 8766 8758 8752 8748 8748 8748 8744 8734 8721 8707 8694 8682
1666.1954 8670 8658 8644 8628 8609 8591 8575 8566 8559 8552 8540 8524 8506
1672.4630 8488 8471 8455 8441 8428 8416 8406 8395 8382 8367 8351 8335 8318
1678.7305 8303 8288 8272 8256 8239 8222 8206 8192 8181 8176 8180 8188 8180
1684.9980 8158 8132 8108 8086 8065 8044 8026 8009 7994 7980 7966 7951 7934
1691.2655 7914 7894 7872 7851 7832 7814 7798 7783 7768 7752 7736 7724 7717
1697.5331 7711 7708 7706 7705 7702 7689 7662 7635 7616 7602 7588 7573 7556
1703.8005 7537 7518 7502 7485 7467 7446 7424 7402 7383 7366 7348 7329 7307
1710.0681 7284 7260 7239 7219 7200 7180 7159 7136 7111 7086 7064 7048 7036
1716.3356 7026 7010 6982 6938 6892 6858 6835 6818 6801 6782 6763 6742 6720
1722.6031 6696 6669 6642 6617 6594 6574 6556 6537 6517 6496 6474 6453 6431
1728.8706 6407 6378 6346 6315 6290 6272 6259 6248 6233 6204 6158 6111 6085
1735.1382 6079 6080 6081 6081 6082 6082 6084 6086 6092 6104 6122 6144 6168
1741.4056 6194 6227 6269 6325 6393 6466 6540 6613 6687 6764 6842 6925 7016
1747.6732 7119 7229 7336 7433 7524 7623 7746 7895 8049 8183 8289 8377 8457
1753.9407 8537 8617 8696 8773 8846 8917 8983 9041 9088 9126 9159 9189 9217
1760.2083 9242 9266 9290 9312 9333 9350 9363 9374 9383 9392 9399 9405 9408
1766.4757 9409 9409 9409 9412 9417 9422 9428 9434 9438 9441 9441 9439 9437
1772.7433 9439 9443 9447 9452 9456 9460 9463 9466 9469 9471 9473 9475 9476
1779.0107 9476 9474 9470 9466 9461 9458 9456 9456 9457 9460 9465 9471 9476
1785.2783 9478 9477 9474 9471 9467 9465 9464 9464 9465 9467 9470 9473 9476
1791.5458 9478 9476 9470 9462 9454 9448 9444 9441 9441 9442 9442 9443 9442
1797.8134 9442 9441 9439 9437 9435 9434 9434 9436 9440 9444 9446 9446 9444
1804.0808 9441 9438 9437 9437 9438 9440 9441 9441 9439 9437 9436 9437 9438
1810.3484 9441 9443 9444 9444 9443 9441 9439 9435 9431 9427 9424 9422 9420
1816.6158 9419 9417 9417 9418 9421 9425 9428 9430 9430 9430 9431 9432 9434
1822.8834 9435 9436 9434 9431 9425 9417 9407 9398 9391 9388 9388 9391 9396
1829.1509 9401 9405 9405 9402 9399 9395 9393 9393 9395 9398 9401 9401 9399
1835.4185 9394 9389 9388 9390 9396 9402 9406 9407 9405 9402 9400 9400 9401
1841.6859 9404 9406 9409 9411 9410 9406 9400 9394 9390 9388 9388 9391 9396
1847.9535 9401 9406 9407 9406 9401 9396 9391 9388 9388 9389 9391 9393 9395
1854.2209 9397 9400 9402 9404 9404 9402 9399 9395 9392 9390 9387 9385 9383
1860.4885 9383 9384 9385 9383 9379 9372 9364 9360 9360 9365 9373 9380 9385
1866.7560 9387 9387 9386 9386 9387 9389 9390 9388 9383 9377 9370 9363 9357
1873.0236 9352 9349 9346 9345 9345 9347 9350 9353 9355 9354 9351 9345 9338
1879.2910 9332 9327 9324 9323 9325 9330 9337 9346 9354 9359 9360 9354 9344
1885.5586 9333 9323 9317 9316 9320 9327 9335 9342 9344 9340 9331 9321 9311
1891.8260 9303 9298 9298 9301 9307 9314 9317 9315 9308 9299 9289 9279 9271
1898.0936 9264 9261 9264 9273 9286 9296 9299 9293 9283 9272 9267 9269 9275
1904.3611 9280 9281 9277 9268 9259 9251 9247 9246 9246 9245 9240 9234 9227
1910.6287 9223 9222 9225 9228 9231 9232 9232 9232 9233 9233 9232 9226 9217
1916.8961 9205 9193 9183 9179 9181 9186 9195 9205 9214 9222 9225 9222 9213
1923.1637 9200 9187 9176 9168 9164 9163 9167 9176 9186 9195 9195 9185 9167
1929.4312 9148 9134 9133 9144 9164 9185 9201 9211 9213 9209 9199 9182 9158
1935.6987 9130 9103 9083 9076 9082 9097 9116 9134 9145 9149 9147 9141 9135
1941.9662 9133 9137 9145 9151 9151 9141 9124 9105 9092 9092 9107 9132 9161
1948.2338 9185 9201 9204 9195 9176 9152 9128 9110 9099 9095 9096 9101 9108
1954.5012 9116 9122 9123 9116 9098 9070 9038 9008 8986 8973 8968 8968 8971
1960.7688 8977 8988 9008 9037 9071 9106 9135 9152 9157 9152 9140 9124 9105
1967.0363 9083 9058 9032 9006 8983 8964 8953 8953 8969 9001 9045 9089 9123
1973.3038 9139 9139 9130 9120 9115 9114 9112 9105 9088 9066 9044 9031 9032
1979.5713 9051 9084 9123 9159 9181 9186 9177 9158 9137 9118 9101 9084 9068
1985.8389 9054 9043 9033 9020 9002 8980 8966 8970 9001 9054 9111 9145 9137
1992.1063 9085 9018 8967 8952 8971 9006 9037 9053 9054 9051 9052 9058 9064
1998.3739 9064 9057 9046 9036 9029 9024 9017 9006 8992 8978 8967 8961 8963
2004.6414 8976 9003 9040 9078 9104 9108 9089 9056 9022 8997 8983 8976 8971
2010.9089 8964 8953 8941 8933 8939 8968 9024 9097 9167 9204 9192 9133 9054
2017.1764 8994 8978 9009 9065 9117 9144 9141 9116 9086 9065 9059 9073 9102
2023.4440 9141 9177 9200 9202 9186 9159 9132 9114 9109 9118 9139 9171 9210
2029.7114 9246 9265 9252 9207 9137 9065 9010 8986 8993 9022 9058 9086 9098
2035.9790 9096 9086 9078 9079 9086 9093 9091 9076 9055 9043 9050 9079 9117
2042.2465 9146 9154 9140 9119 9103 9102 9111 9119 9117 9105 9088 9076 9070
2048.5139 9070 9073 9079 9091 9110 9133 9152 9157 9145 9119 9087 9062 9050
2054.7815 9051 9061 9072 9080 9086 9092 9101 9114 9127 9136 9139 9138 9135
2061.0491 9133 9132 9131 9128 9124 9120 9118 9116 9114 9108 9102 9097 9099
2067.3167 9110 9127 9144 9155 9156 9148 9134 9123 9119 9124 9135 9149 9160
2073.5840 9165 9166 9164 9162 9160 9155 9143 9125 9103 9082 9068 9062 9065
2079.8516 9072 9081 9092 9100 9106 9106 9101 9091 9082 9076 9077 9082 9089
2086.1191 9094 9093 9088 9079 9069 9060 9053 9050 9049 9052 9059 9068 9079
2092.3867 9091 9103 9113 9119 9118 9108 9091 9069 9050 9038 9036 9044 9055
2098.6541 9061 9059 9046 9030 9018 9019 9034 9061 9090 9113 9124 9122 9113
2104.9216 9101 9092 9088 9089 9091 9090 9083 9072 9060 9054 9056 9067 9084
2111.1892 9100 9110 9113 9110 9105 9101 9099 9102 9107 9113 9120 9126 9130
2117.4568 9131 9130 9128 9125 9124 9125 9127 9127 9121 9110 9098 9092 9099
2123.7241 9119 9144 9163 9166 9152 9128 9107 9097 9102 9119 9140 9157 9169
2129.9917 9176 9180 9183 9183 9179 9170 9158 9145 9136 9138 9152 9175 9199
2136.2593 9211 9204 9178 9142 9110 9092 9091 9099 9106 9103 9094 9089 9101
2142.5269 9136 9187 9242 9284 9303 9298 9280 9259 9241 9225 9209 9190 9173
2148.7942 9166 9175 9198 9224 9242 9243 9229 9207 9186 9173 9169 9171 9179
2155.0618 9195 9217 9240 9256 9260 9258 9260 9277 9311 9344 9358 9343 9312
2161.3293 9285 9280 9299 9329 9352 9353 9333 9304 9281 9274 9284 9302 9315
2167.5969 9313 9291 9252 9208 9171 9155 9164 9199 9247 9294 9326 9337 9328
2173.8643 9310 9294 9289 9295 9307 9318 9320 9312 9296 9277 9261 9255 9260
2180.1318 9276 9297 9313 9316 9299 9269 9235 9213 9212 9231 9261 9285 9291
2186.3994 9278 9254 9234 9228 9240 9267 9299 9327 9347 9359 9367 9371 9371
2192.6670 9363 9344 9315 9282 9250 9227 9215 9215 9223 9236 9253 9270 9284
2198.9343 9293 9295 9291 9283 9274 9270 9272 9282 9297 9310 9317 9313 9296
2205.2019 9270 9241 9215 9194 9182 9178 9182 9193 9208 9222 9228 9223 9208
2211.4695 9190 9176 9173 9184 9204 9224 9235 9233 9218 9198 9180 9172 9173
2217.7371 9179 9183 9179 9169 9157 9150 9151 9157 9163 9162 9154 9142 9133
2224.0044 9130 9132 9136 9138 9138 9139 9145 9157 9173 9187 9195 9193 9183
2230.2720 9170 9154 9140 9128 9121 9122 9130 9143 9156 9162 9156 9141 9120
2236.5396 9101 9086 9077 9074 9075 9079 9088 9102 9118 9133 9141 9139 9127
2242.8071 9106 9082 9060 9043 9034 9033 9039 9049 9062 9075 9086 9094 9100
2249.0745 9104 9107 9107 9103 9098 9092 9088 9087 9089 9094 9101 9109 9116
2255.3420 9122 9124 9120 9111 9097 9080 9064 9052 9049 9055 9069 9088 9104
2261.6096 9114 9114 9107 9093 9078 9063 9048 9037 9030 9030 9035 9044 9052
2267.8772 9057 9058 9057 9056 9057 9059 9061 9061 9062 9066 9072 9080 9086
2274.1445 9087 9082 9073 9063 9055 9050 9047 9046 9046 9048 9052 9057 9061
2280.4121 9062 9060 9055 9051 9047 9045 9045 9047 9049 9054 9060 9067 9071
2286.6797 9072 9069 9063 9057 9055 9056 9061 9065 9067 9065 9059 9051 9044
2292.9473 9040 9039 9041 9044 9048 9052 9056 9060 9063 9064 9062 9060 9056
2299.2146 9053 9051 9048 9045 9039 9033 9027 9023 9023 9026 9031 9037 9041
2305.4822 9044 9045 9043 9038 9031 9024 9016 9009 9002 8997 8995 8998 9006
2311.7498 9018 9030 9039 9042 9041 9038 9035 9033 9032 9030 9028 9025 9022
2318.0173 9018 9015 9011 9008 9006 9005 9004 9003 9001 9000 9000 9001 9001
2324.2847 9001 9002 9003 9007 9013 9021 9026 9025 9018 9006 8996 8991 8994
2330.5522 9003 9012 9015 9011 9002 8992 8987 8989 8997 9007 9017 9024 9026
2336.8198 9023 9017 9010 9000 8990 8981 8975 8975 8982 8995 9010 9021 9028
2343.0874 9029 9029 9030 9034 9037 9035 9025 9007 8987 8968 8954 8944 8936
2349.3547 8929 8920 8910 8902 8898 8904 8920 8946 8975 9004 9026 9042 9054
2355.6223 9066 9081 9100 9119 9132 9135 9125 9104 9077 9049 9024 9005 8993
2361.8899 8986 8985 8990 8997 9002 9000 8988 8969 8949 8932 8920 8913 8910
2368.1575 8909 8911 8917 8925 8932 8932 8922 8904 8879 8853 8829 8811 8799
2374.4248 8794 8793 8794 8795 8792 8786 8777 8766 8756 8748 8743 8742 8742
2380.6924 8743 8744 8746 8748 8750 8753 8752 8748 8740 8730 8720 8714 8711
2386.9600 8713 8716 8718 8719 8716 8713 8709 8706 8702 8699 8696 8695 8695
2393.2275 8696 8696 8695 8691 8687 8684 8684 8687 8690 8691 8690 8685 8679
2399.4949 8673 8668 8664 8659 8653 8645 8637 8631 8625 8621 8617 8612 8608
2405.7625 8605 8603 8601 8599 8596 8593 8590 8588 8587 8584 8579 8570 8560
2412.0300 8547 8535 8524 8512 8501 8490 8480 8470 8463 8458 8456 8455 8453
2418.2976 8451 8446 8441 8437 8435 8435 8437 8439 8439 8436 8433 8430 8430
2424.5649 8432 8436 8442 8451 8460 8470 8478 8484 8486 8488 8490 8494 8498
2430.8325 8501 8503 8502 8501 8501 8503 8506 8509 8510 8510 8507 8504 8500
2437.1001 8494 8487 8478 8469 8460 8452 8447 8445 8445 8448 8452 8455 8456
2443.3677 8454 8449 8444 8440 8440 8443 8448 8453 8457 8458 8456 8454 8454
2449.6350 8456 8462 8470 8478 8484 8489 8492 8493 8492 8490 8488 8486 8484
2455.9026 8482 8481 8479 8477 8478 8479 8482 8484 8485 8485 8483 8481 8479
2462.1702 8478 8478 8477 8476 8474 8472 8470 8467 8462 8456 8448 8441 8433
2468.4377 8428 8425 8424 8425 8426 8425 8420 8412 8402 8393 8388 8386 8386
2474.7051 8386 8383 8375 8362 8347 8334 8325 8321 8320 8320 8319 8315 8308
2480.9727 8300 8290 8279 8268 8258 8249 8242 8237 8233 8228 8222 8214 8204
2487.2402 8195 8186 8180 8174 8168 8161 8153 8143 8132 8121 8111 8103 8095
2493.5078 8089 8081 8073 8064 8054 8047 8041 8036 8031 8024 8014 8002 7989
2499.7751 7978 7969 7962 7957 7954 7952 7952 7955 7960 7965 7968 7969 7967
2506.0427 7963 7959 7954 7949 7943 7937 7932 7927 7925 7926 7929 7932 7935
2512.3103 7937 7938 7937 7934 7929 7923 7916 7912 7911 7914 7917 7919 7917
2518.5779 7909 7897 7883 7869 7857 7849 7844 7843 7844 7846 7848 7849 7850
2524.8452 7851 7854 7856 7859 7861 7863 7866 7872 7881 7890 7900 7909 7918
2531.1128 7927 7938 7950 7961 7971 7980 7989 8001 8016 8033 8050 8065 8076
2537.3804 8085 8091 8098 8105 8111 8115 8117 8115 8110 8103 8094 8084 8073
2543.6479 8064 8057 8053 8050 8047 8041 8033 8024 8016 8009 8005 8001 7997
2549.9153 7991 7985 7978 7970 7961 7948 7932 7912 7890 7867 7844 7822 7802
2556.1829 7784 7769 7754 7738 7720 7700 7679 7658 7638 7622 7608 7594 7580
2562.4504 7565 7552 7542 7538 7545 7561 7587 7620 7656 7693 7728 7764 7800
2568.7180 7838 7875 7910 7940 7965 7984 8000 8015 8028 8041 8053 8063 8072
2574.9856 8080 8085 8086 8085 8081 8077 8074 8074 8076 8079 8080 8080 8080
2581.2529 8080 8081 8083 8084 8084 8081 8078 8073 8069 8065 8061 8057 8052
2587.5205 8047 8042 8036 8030 8023 8016 8008 8000 7991 7982 7972 7962 7954
2593.7881 7946 7941 7936 7930 7922 7911 7898 7885 7872 7861 7852 7845 7839
2600.0557 7834 7830 7826 7822 7820 7817 7813 7806 7796 7783 7770 7757 7748
2606.3230 7741 7736 7731 7726 7718 7709 7701 7695 7693 7694 7697 7700 7701
2612.5906 7699 7696 7693 7692 7694 7698 7702 7704 7706 7707 7710 7716 7726
2618.8582 7738 7749 7756 7758 7755 7752 7752 7755 7763 7772 7781 7788 7790
2625.1257 7791 7791 7791 7792 7792 7792 7790 7789 7787 7786 7785 7785 7783
2631.3931 7780 7776 7771 7765 7759 7753 7748 7743 7737 7731 7724 7717 7709
2637.6606 7701 7693 7685 7676 7668 7660 7653 7647 7643 7638 7634 7630 7627
2643.9282 7626 7626 7628 7631 7633 7635 7636 7636 7637 7639 7644 7650 7658
2650.1958 7665 7672 7677 7680 7682 7684 7687 7691 7695 7700 7704 7709 7714
2656.4631 7720 7727 7734 7741 7747 7754 7761 7767 7774 7779 7784 7787 7790
2662.7307 7792 7793 7795 7796 7798 7799 7799 7797 7793 7788 7781 7774 7768
2668.9983 7764 7761 7758 7756 7753 7749 7744 7738 7733 7728 7723 7719 7714
2675.2659 7709 7703 7698 7692 7687 7681 7675 7670 7664 7659 7654 7650 7645
2681.5332 7639 7634 7629 7626 7625 7624 7624 7622 7619 7615 7611 7609 7608
2687.8008 7607 7606 7605 7604 7603 7601 7598 7593 7588 7582 7576 7571 7566
2694.0684 7563 7559 7555 7552 7549 7546 7542 7537 7532 7527 7521 7516 7510
2700.3359 7505 7501 7497 7495 7493 7492 7491 7489 7486 7483 7479 7475 7472
2706.6033 7469 7466 7463 7461 7459 7455 7451 7445 7439 7433 7429 7426 7423
2712.8708 7420 7416 7412 7406 7402 7399 7397 7395 7393 7390 7387 7383 7380
2719.1384 7378 7376 7373 7369 7364 7359 7353 7346 7341 7335 7330 7325 7321
2725.4060 7317 7313 7309 7305 7300 7295 7290 7285 7280 7276 7272 7270 7267
2731.6733 7265 7264 7262 7261 7258 7256 7253 7250 7247 7244 7241 7238 7235
2737.9409 7232 7231 7231 7233 7236 7238 7240 7240 7239 7237 7234 7231 7229
2744.2085 7227 7226 7226 7227 7228 7228 7227 7225 7224 7225 7226 7228 7229
2750.4761 7227 7222 7215 7209 7203 7199 7196 7193 7191 7188 7186 7183 7179
2756.7434 7174 7168 7161 7154 7149 7144 7140 7136 7132 7127 7121 7115 7109
2763.0110 7104 7099 7095 7091 7086 7082 7077 7073 7067 7061 7053 7045 7036
2769.2786 7029 7024 7020 7016 7012 7006 7001 6995 6992 6989 6988 6987 6985
2775.5461 6981 6977 6972 6968 6964 6960 6956 6952 6949 6946 6944 6943 6943
2781.8135 6941 6939 6935 6931 6926 6923 6921 6920 6918 6916 6913 6908 6903
2788.0811 6897 6891 6886 6881 6877 6874 6870 6866 6862 6859 6855 6851 6846
2794.3486 6840 6835 6829 6824 6819 6815 6812 6807 6803 6798 6793 6788 6784
2800.6162 6779 6775 6771 6766 6760 6756 6752 6748 6746 6743 6739 6734 6729
2806.8835 6724 6719 6714 6710 6705 6699 6693 6689 6685 6682 6679 6676 6672
2813.1511 6668 6663 6660 6659 6658 6658 6658 6657 6654 6650 6644 6637 6629
2819.4187 6622 6617 6613 6611 6610 6610 6609 6607 6604 6599 6594 6589 6584
2825.6863 6579 6576 6572 6570 6568 6567 6567 6567 6567 6566 6565 6563 6560
2831.9536 6557 6553 6549 6545 6541 6536 6533 6529 6527 6527 6528 6530 6532
2838.2212 6534 6534 6533 6531 6529 6527 6525 6525 6525 6524 6522 6518 6515
2844.4888 6512 6511 6512 6514 6517 6521 6523 6524 6524 6522 6519 6518 6519
2850.7563 6522 6527 6531 6535 6536 6536 6535 6534 6534 6535 6535 6535 6535
2857.0237 6535 6536 6537 6538 6540 6541 6543 6545 6548 6551 6554 6555 6554
2863.2913 6553 6551 6550 6548 6546 6544 6543 6545 6548 6552 6556 6558 6559
2869.5588 6558 6558 6558 6559 6560 6562 6564 6566 6568 6570 6571 6572 6572
2875.8264 6571 6571 6571 6572 6574 6578 6582 6585 6589 6592 6595 6597 6600
2882.0938 6603 6606 6609 6612 6614 6614 6613 6612 6613 6617 6624 6634 6646
2888.3613 6658 6667 6673 6676 6676 6674 6672 6671 6671 6672 6675 6679 6685
2894.6289 6692 6698 6704 6709 6713 6715 6717 6719 6719 6719 6718 6719 6721
2900.8965 6725 6730 6737 6743 6749 6754 6760 6767 6775 6782 6790 6796 6801
2907.1638 6803 6803 6804 6805 6809 6814 6820 6826 6829 6831 6832 6833 6833
2913.4314 6832 6830 6827 6825 6825 6830 6840 6853 6869 6883 6894 6903 6910
2919.6990 6917 6925 6934 6944 6954 6964 6974 6982 6988 6991 6993 6994 6995
2925.9666 6996 6999 7003 7007 7011 7016 7021 7026 7031 7035 7040 7044 7047
2932.2339 7051 7055 7058 7062 7065 7067 7069 7070 7072 7074 7078 7082 7087
2938.5015 7090 7092 7092 7091 7090 7090 7092 7094 7096 7097 7099 7100 7103
2944.7690 7107 7114 7123 7134 7145 7154 7161 7165 7169 7173 7178 7185 7193
2951.0366 7200 7207 7213 7217 7221 7225 7230 7236 7243 7252 7262 7272 7282
2957.3040 7291 7297 7300 7302 7302 7303 7305 7310 7317 7327 7338 7348 7356
2963.5715 7362 7366 7370 7375 7384 7394 7404 7414 7421 7424 7427 7429 7432
2969.8391 7438 7445 7453 7461 7466 7470 7474 7479 7484 7490 7497 7503 7507
2976.1067 7511 7515 7519 7523 7527 7530 7534 7537 7540 7545 7551 7556 7561
2982.3740 7565 7566 7566 7567 7567 7568 7570 7571 7572 7572 7572 7571 7570
2988.6416 7568 7565 7561 7556 7551 7545 7539 7532 7524 7516 7508 7501 7495
2994.9092 7492 7492 7494 7499 7505 7513 7522 7531 7540 7550 7559 7568 7575
3001.1768 7581 7584 7585 7585 7583 7582 7583 7585 7588 7591 7593 7592 7589
3007.4441 7585 7580 7576 7572 7570 7569 7569 7570 7571 7572 7571 7569 7565
3013.7117 7560 7556 7553 7553 7553 7553 7553 7553 7552 7552 7552 7553 7554
3019.9792 7556 7556 7555 7553 7549 7546 7543 7543 7544 7547 7551 7554 7557
3026.2468 7560 7561 7562 7562 7561 7559 7557 7558 7562 7568 7575 7582 7588
3032.5142 7591 7591 7591 7591 7592 7595 7598 7600 7602 7602 7604 7607 7612
3038.7817 7619 7626 7630 7632 7633 7634 7635 7638 7640 7642 7645 7649 7654
3045.0493 7659 7664 7668 7673 7679 7686 7694 7701 7706 7710 7713 7716 7720
3051.3169 7724 7728 7731 7734 7737 7738 7739 7739 7738 7739 7741 7745 7752
3057.5842 7760 7767 7772 7775 7777 7779 7781 7785 7791 7797 7803 7808 7811
3063.8518 7814 7818 7823 7829 7836 7842 7847 7851 7854 7856 7857 7858 7859
3070.1194 7861 7864 7869 7876 7882 7887 7891 7893 7894 7894 7895 7896 7898
3076.3870 7900 7903 7905 7906 7907 7907 7907 7908 7909 7911 7912 7913 7913
3082.6543 7914 7914 7915 7916 7918 7920 7922 7924 7926 7929 7933 7938 7944
3088.9219 7949 7954 7957 7959 7959 7960 7960 7961 7963 7965 7968 7973 7978
3095.1895 7983 7987 7990 7991 7991 7991 7993 7997 8004 8010 8016 8021 8024
3101.4570 8028 8033 8040 8048 8056 8062 8065 8065 8063 8061 8061 8065 8071
3107.7244 8079 8087 8094 8099 8103 8108 8114 8122 8130 8137 8143 8148 8151
3113.9919 8155 8158 8161 8163 8167 8170 8174 8178 8183 8188 8195 8203 8212
3120.2595 8223 8234 8243 8250 8255 8260 8266 8272 8279 8286 8292 8298 8302
3126.5271 8308 8315 8323 8331 8337 8341 8345 8349 8354 8361 8368 8374 8376
3132.7944 8378 8379 8381 8386 8393 8401 8409 8417 8423 8429 8435 8439 8444
3139.0620 8448 8453 8458 8463 8467 8471 8474 8476 8478 8481 8485 8492 8500
3145.3296 8507 8512 8515 8515 8513 8513 8514 8520 8528 8539 8549 8558 8565
3151.5972 8569 8571 8573 8576 8581 8588 8595 8601 8607 8611 8615 8619 8621
3157.8645 8622 8622 8623 8626 8631 8638 8646 8654 8661 8667 8673 8679 8685
3164.1321 8691 8698 8704 8709 8713 8715 8716 8716 8719 8725 8733 8741 8746
3170.3997 8747 8746 8745 8747 8752 8760 8769 8779 8788 8796 8805 8813 8821
3176.6672 8827 8831 8832 8831 8830 8829 8831 8835 8841 8847 8851 8853 8856
3182.9346 8862 8869 8878 8887 8893 8897 8900 8903 8908 8915 8922 8930 8940
3189.2021 8949 8959 8966 8969 8968 8964 8959 8956 8958 8965 8975 8988 9000
3195.4697 9011 9017 9020 9019 9016 9014 9015 9019 9025 9030 9035 9038 9042
3201.7373 9046 9053 9059 9066 9072 9079 9086 9094 9100 9103 9102 9099 9097
3208.0046 9097 9100 9107 9115 9122 9127 9130 9132 9132 9133 9134 9136 9140
3214.2722 9144 9150 9157 9164 9170 9173 9175 9176 9177 9179 9185 9193 9201
3220.5398 9209 9215 9218 9221 9223 9225 9228 9232 9234 9237 9239 9243 9247
3226.8074 9253 9259 9264 9268 9271 9274 9278 9281 9286 9290 9296 9301 9306
3233.0747 9310 9312 9314 9315 9316 9316 9315 9314 9312 9312 9312 9313 9316
3239.3423 9320 9324 9327 9329 9330 9331 9332 9335 9338 9343 9347 9352 9356
3245.6099 9359 9359 9356 9350 9343 9338 9335 9337 9342 9348 9353 9355 9356
3251.8774 9353 9350 9347 9345 9345 9346 9347 9347 9345 9343 9343 9344 9346
3258.1448 9348 9347 9344 9340 9336 9333 9332 9331 9331 9330 9328 9326 9323
3264.4124 9320 9318 9319 9322 9327 9331 9334 9332 9328 9322 9314 9306 9299
3270.6799 9292 9288 9287 9289 9294 9301 9306 9308 9306 9299 9289 9280 9272
3276.9475 9268 9268 9269 9269 9268 9264 9257 9248 9238 9229 9222 9217 9214
3283.2148 9213 9212 9210 9207 9202 9197 9192 9187 9181 9175 9169 9162 9156
3289.4824 9149 9142 9136 9130 9124 9117 9108 9097 9084 9070 9056 9042 9030
3295.7500 9021 9013 9007 9000 8992 8982 8970 8959 8949 8942 8938 8938 8937
3302.0176 8934 8927 8915 8901 8886 8871 8859 8848 8838 8829 8820 8812 8804
3308.2849 8796 8787 8779 8771 8763 8757 8751 8746 8742 8738 8734 8729 8724
3314.5525 8719 8714 8709 8704 8698 8689 8678 8668 8659 8653 8650 8650 8651
3320.8201 8650 8648 8644 8639 8634 8630 8628 8625 8622 8617 8609 8600 8590
3327.0876 8581 8572 8563 8556 8549 8543 8537 8531 8523 8513 8501 8489 8478
3333.3550 8469 8462 8458 8456 8454 8450 8445 8436 8427 8416 8405 8394 8385
3339.6226 8378 8373 8369 8365 8358 8349 8336 8320 8303 8286 8271 8261 8253
3345.8901 8248 8245 8242 8237 8231 8223 8212 8201 8190 8181 8173 8167 8162
3352.1577 8157 8152 8147 8140 8132 8123 8113 8102 8093 8086 8081 8079 8077
3358.4250 8073 8068 8061 8055 8051 8049 8050 8051 8051 8049 8046 8042 8038
3364.6926 8035 8033 8031 8031 8032 8034 8037 8041 8043 8045 8047 8050 8057
3370.9602 8065 8075 8083 8087 8088 8087 8085 8083 8084 8086 8090 8096 8102
3377.2278 8110 8117 8123 8127 8131 8135 8139 8145 8151 8158 8164 8169 8173
3383.4951 8175 8175 8177 8179 8182 8187 8191 8194 8196 8196 8195 8192 8187
3389.7627 8181 8174 8167 8162 8158 8156 8155 8154 8153 8152 8149 8147 8144
3396.0303 8141 8138 8133 8128 8123 8118 8114 8112 8112 8114 8118 8122 8126
3402.2979 8129 8131 8132 8135 8139 8147 8157 8169 8180 8188 8193 8197 8200
3408.5652 8206 8214 8225 8237 8248 8260 8273 8286 8300 8316 8332 8347 8362
3414.8328 8374 8385 8394 8403 8413 8425 8437 8450 8461 8471 8478 8485 8491
3421.1003 8498 8506 8516 8525 8535 8545 8555 8567 8579 8591 8602 8612 8619
3427.3679 8624 8630 8636 8643 8653 8664 8676 8689 8700 8710 8718 8725 8731
3433.6353 8737 8742 8746 8749 8753 8759 8769 8782 8796 8807 8814 8817 8818
3439.9028 8820 8826 8833 8842 8850 8857 8865 8874 8883 8892 8898 8901 8901
3446.1704 8899 8899 8903 8910 8920 8930 8940 8947 8952 8956 8959 8963 8969
3452.4380 8977 8988 9000 9011 9018 9022 9024 9026 9030 9037 9046 9056 9062
3458.7053 9065 9064 9063 9064 9069 9078 9088 9100 9110 9120 9129 9137 9146
3464.9729 9155 9162 9168 9172 9175 9177 9178 9179 9181 9184 9189 9198 9208
3471.2405 9219 9230 9239 9247 9253 9258 9264 9271 9279 9290 9301 9312 9322
3477.5081 9328 9332 9333 9334 9337 9341 9346 9352 9358 9364 9370 9377 9384
3483.7754 9392 9397 9398 9394 9386 9378 9373 9376 9385 9399 9411 9420 9425
3490.0430 9427 9431 9438 9446 9454 9460 9463 9463 9463 9463 9463 9463 9462
3496.3105 9462 9462 9463 9467 9474 9482 9490 9496 9499 9499 9496 9493 9493
3502.5781 9498 9507 9517 9526 9533 9539 9543 9547 9550 9550 9548 9544 9540
3508.8455 9537 9535 9534 9532 9529 9527 9525 9523 9518 9509 9496 9481 9467
3515.1130 9456 9449 9446 9445 9446 9448 9448 9445 9439 9429 9417 9405 9394
3521.3806 9385 9378 9371 9365 9360 9356 9355 9356 9359 9364 9371 9379 9386
3527.6482 9392 9395 9396 9398 9403 9411 9423 9435 9446 9453 9457 9458 9459
3533.9155 9461 9464 9469 9474 9477 9477 9474 9470 9464 9459 9456 9456 9459
3540.1831 9463 9470 9476 9481 9485 9488 9490 9492 9493 9492 9489 9482 9475
3546.4507 9469 9469 9473 9481 9488 9492 9493 9492 9491 9490 9493 9497 9503
3552.7183 9508 9513 9516 9519 9522 9526 9529 9533 9535 9537 9540 9545 9551
3558.9856 9558 9562 9564 9564 9562 9564 9569 9579 9591 9604 9616 9625 9633
3565.2532 9638 9641 9641 9637 9632 9629 9628 9630 9634 9638 9643 9648 9653
3571.5208 9659 9666 9674 9683 9691 9698 9703 9705 9707 9708 9710 9714 9718
3577.7883 9723 9728 9733 9738 9743 9746 9747 9747 9746 9747 9753 9763 9774
3584.0559 9784 9789 9788 9783 9779 9780 9789 9802 9813 9817 9817 9814 9812
3590.3232 9812 9813 9813 9810 9804 9796 9790 9789 9796 9811 9828 9843 9854
3596.5908 9857 9854 9846 9835 9824 9815 9810 9813 9821 9833 9843 9850 9851
3602.8584 9850 9849 9850 9853 9856 9859 9860 9860 9860 9862 9867 9872 9874
3609.1260 9871 9863 9853 9843 9835 9832 9835 9846 9860 9873 9881 9882 9881
3615.3933 9879 9881 9885 9890 9892 9891 9885 9878 9873 9872 9872 9870 9867
3621.6609 9864 9864 9867 9874 9883 9893 9900 9903 9902 9899 9897 9898 9904
3627.9285 9912 9917 9911 9895 9880 9871 9868 9870 9875 9880 9886 9889 9890
3634.1960 9887 9882 9877 9873 9873 9877 9885 9896 9907 9916 9921 9921 9917
3640.4634 9911 9904 9897 9892 9891 9893 9896 9900 9903 9905 9904 9901 9898
3646.7310 9896 9899 9904 9912 9917 9917 9910 9897 9884 9876 9875 9880 9888
3652.9985 9897 9906 9914 9921 9927 9932 9932 9928 9921 9913 9907 9903 9902
3659.2661 9902 9904 9907 9910 9913 9913 9910 9903 9895 9888 9886 9890 9896
3665.5334 9903 9905 9902 9896 9888 9882 9882 9889 9902 9916 9923 9922 9917
3671.8010 9911 9905 9901 9898 9898 9900 9903 9901 9893 9882 9873 9866 9861
3678.0686 9859 9858 9860 9863 9867 9872 9877 9882 9888 9893 9896 9898 9898
3684.3362 9895 9891 9886 9881 9878 9877 9880 9886 9891 9893 9891 9888 9887
3690.6035 9890 9896 9902 9908 9911 9912 9912 9911 9908 9904 9898 9892 9886
3696.8711 9881 9877 9873 9870 9868 9869 9873 9880 9887 9892 9891 9885 9879
3703.1387 9875 9876 9880 9886 9893 9897 9899 9897 9892 9886 9880 9874 9870
3709.4063 9870 9874 9880 9889 9898 9904 9903 9899 9893 9889 9887 9888 9891
3715.6736 9897 9901 9904 9903 9900 9894 9888 9884 9883 9883 9884 9886 9889
3721.9412 9891 9891 9887 9880 9872 9866 9867 9875 9890 9905 9914 9917 9915
3728.2087 9910 9907 9905 9904 9902 9898 9891 9884 9879 9880 9884 9888 9886
3734.4763 9879 9867 9860 9862 9869 9876 9880 9880 9877 9874 9871 9870 9871
3740.7437 9874 9880 9889 9899 9911 9923 9932 9927 9906 9884 9869 9863 9860
3747.0112 9862 9866 9873 9882 9888 9888 9885 9880 9878 9880 9884 9886 9886
3753.2788 9882 9876 9869 9861 9854 9849 9849 9853 9858 9861 9861 9857 9852
3759.5464 9847 9846 9848 9853 9859 9864 9867 9867 9864 9857 9850 9845 9843
3765.8137 9845 9849 9854 9858 9860 9860 9859 9855 9852 9850 9852 9855 9859
3772.0813 9860 9860 9858 9855 9851 9849 9849 9849 9850 9850 9850 9850 9848
3778.3489 9845 9843 9840 9839 9840 9842 9843 9843 9841 9837 9833 9829 9828
3784.6165 9829 9833 9836 9840 9843 9845 9848 9850 9850 9848 9844 9840 9837
3790.8838 9836 9838 9841 9843 9844 9842 9839 9836 9835 9837 9842 9847 9848
3797.1514 9846 9843 9838 9835 9833 9833 9834 9837 9842 9847 9848 9847 9843
3803.4189 9840 9837 9834 9832 9833 9837 9846 9856 9862 9862 9856 9847 9836
3809.6865 9826 9818 9815 9817 9824 9831 9839 9844 9847 9851 9858 9868 9876
3815.9539 9875 9862 9843 9825 9813 9807 9807 9813 9821 9827 9828 9827 9829
3822.2214 9834 9839 9843 9845 9843 9840 9837 9834 9833 9833 9834 9834 9834
3828.4890 9834 9833 9832 9832 9832 9833 9834 9834 9832 9830 9829 9828 9828
3834.7566 9827 9824 9818 9812 9808 9810 9819 9833 9845 9853 9856 9853 9848
3841.0239 9842 9836 9830 9824 9817 9811 9806 9804 9806 9811 9816 9822 9827
3847.2915 9829 9830 9830 9829 9828 9824 9817 9805 9788 9771 9758 9762 9786
3853.5591 9817 9836 9840 9837 9833 9830 9829 9828 9827 9825 9823 9820 9817
3859.8267 9815 9814 9813 9811 9808 9804 9799 9796 9796 9802 9813 9823 9829
3866.0940 9829 9825 9820 9815 9812 9810 9811 9812 9811 9806 9799 9793 9787
3872.3616 9783 9783 9786 9794 9802 9808 9810 9811 9810 9808 9804 9799 9793
3878.6292 9785 9779 9775 9777 9784 9793 9802 9809 9814 9817 9818 9815 9811
3884.8967 9807 9805 9806 9809 9812 9813 9812 9811 9811 9811 9812 9813 9812
3891.1641 9807 9799 9792 9788 9787 9789 9791 9794 9796 9796 9797 9797 9799
3897.4316 9801 9804 9805 9804 9800 9794 9788 9785 9786 9792 9804 9818 9832
3903.6992 9841 9842 9834 9821 9806 9796 9790 9790 9792 9796 9799 9800 9798
3909.9668 9795 9792 9791 9792 9794 9798 9801 9801 9799 9794 9789 9786 9785
3916.2341 9787 9792 9797 9802 9804 9804 9801 9796 9789 9785 9783 9785 9789
3922.5017 9793 9796 9796 9794 9791 9790 9790 9791 9792 9792 9791 9791 9792
3928.7693 9795 9799 9802 9805 9805 9803 9799 9795 9794 9794 9796 9798 9798
3935.0369 9796 9792 9788 9785 9784 9785 9786 9788 9788 9787 9785 9784 9784
3941.3042 9786 9790 9795 9800 9805 9808 9809 9809 9808 9804 9799 9793 9787
3947.5718 9781 9776 9774 9774 9777 9782 9789 9795 9800 9803 9805 9805 9803
3953.8394 9800 9796 9792 9787 9782 9777 9773 9771 9772 9777 9784 9792 9797
3960.1069 9799 9796 9791 9785 9782 9782 9786 9792 9797 9800 9801 9801 9800
3966.3743 9799 9797 9793 9787 9779 9772 9768 9767 9767 9768 9770 9772 9776
3972.6418 9781 9786 9790 9790 9787 9783 9779 9776 9775 9775 9776 9776 9776
3978.9094 9776 9776 9777 9779 9780 9780 9778 9776 9774 9774 9776 9780 9784
3985.1770 9786 9786 9783 9779 9773 9769 9768 9769 9772 9776 9779 9781 9782
3991.4443 9783 9784 9785 9786 9784 9779 9772 9765 9761 9760 9764 9769 9774
3997.7119 9777 9777 9774 9770 9768 9769
##END= 
