##TITLE= bkg
##JCAMP-DX= 4.24
##DATA TYPE= INFRARED SPECTRUM
##ORIGIN= JASCO
##OWNER= 
##DATE= 22/03/31
##TIME= 08:33:25
##SPECTROMETER/DATA SYSTEM= 
##RESOLUTION= 
##DELTAX=   0.48211674
##XUNITS= 1/CM
##YUNITS= ARBITRARY UNITS
##XFACTOR= 1.00000
##YFACTOR= 1E-005
##FIRSTX=   599.7532
##LASTX=  4000.1226
##NPOINTS=     7054
##FIRSTY=      1.20368
##MAXY=     10.23355
##MINY=      0.26736
##XYDATA= (X++(Y..Y))
599.7532 120368 120945 122070 123537 125011 126188 126931 127312 127537 127819
604.5744 128268 128870 129525 130132 130633 131033 131371 131690 132015 132346
609.3956 132674 132997 133318 133648 133991 134346 134716 135117 135558 135993
614.2167 136289 136236 135652 134521 133097 131867 131370 131945 133548 135757
619.0379 137967 139681 140717 141242 141610 142121 142847 143609 144109 144129
623.8591 143670 142971 142398 142276 142746 143719 144939 146113 147044 147685
628.6802 148121 148471 148796 149073 149233 149236 149110 148924 148719 148467
633.5014 148102 147615 147116 146806 146849 147238 147767 148135 148131 147760
638.3226 147234 146833 146741 146956 147326 147654 147787 147661 147286 146720
643.1437 146063 145455 145039 144905 145013 145166 145063 144435 143199 141544
647.9649 139885 138701 138325 138802 139883 141159 142253 142964 143305 143419
652.7861 143462 143513 143573 143620 143668 143778 144005 144348 144741 145120
657.6072 145507 146026 146817 147915 149188 150421 151464 152336 153181 154148
662.4284 155338 156880 158972 161661 164313 165122 161262 150032 130637 105579
667.2496 80556 62531 56804 64655 82879 105450 126281 141539 150427 154399
672.0707 155649 155868 155820 155608 155150 154481 153756 153132 152679 152383
676.8919 152199 152088 152023 151991 151996 152065 152244 152575 153070 153710
681.7131 154456 155259 156081 156901 157713 158522 159326 160105 160823 161436
686.5342 161920 162282 162566 162847 163232 163848 164809 166165 167854 169700
691.3554 171463 172944 174074 174943 175740 176652 177771 179059 180382 181594
696.1766 182614 183467 184267 185155 186217 187440 188718 189917 190949 191820
700.9977 192613 193423 194293 195184 196011 196698 197225 197641 198036 198499
705.8189 199089 199826 200699 201680 202730 203808 204871 205867 206738 207423
710.6401 207878 208104 208172 208224 208432 208920 209689 210587 211377 211864
715.4612 212024 212020 212069 212224 212230 211615 209987 207394 204468 202221
720.2824 201562 202826 205601 208961 211948 213999 215086 215552 215803 216085
725.1036 216441 216818 217175 217533 217935 218391 218859 219262 219538 219664
729.9247 219669 219624 219624 219757 220069 220547 221120 221688 222165 222501
734.7459 222681 222712 222610 222397 222112 221811 221550 221356 221219 221097
739.5671 220956 220802 220687 220675 220786 220954 221050 220939 220568 219994
744.3882 219361 218817 218438 218209 218063 217946 217855 217828 217895 218035
749.2094 218186 218279 218300 218302 218380 218619 219037 219582 220155 220671
754.0306 221095 221451 221790 222148 222522 222878 223186 223459 223759 224167
758.8517 224730 225421 226131 226712 227041 227074 226875 226589 226392 226419
763.6729 226719 227243 227873 228479 228981 229374 229721 230109 230598 231207
768.4941 231916 232702 233552 234460 235403 236325 237156 237859 238454 239016
773.3152 239622 240292 240975 241580 242047 242393 242702 243070 243544 244101
778.1364 244670 245185 245605 245919 246124 246216 246204 246126 246052 246057
782.9576 246182 246414 246686 246918 247049 247065 246996 246896 246820 246814
787.7787 246899 247077 247334 247642 247971 248291 248576 248801 248938 248965
792.5999 248869 248663 248398 248150 247999 247990 248109 248280 248410 248433
797.4211 248354 248244 248203 248308 248576 248960 249374 249729 249964 250057
802.2422 250025 249918 249806 249759 249835 250068 250466 251019 251706 252495
807.0634 253344 254198 254989 255652 256139 256434 256566 256609 256659 256804
811.8846 257088 257489 257926 258308 258577 258753 258916 259163 259553 260074
816.7057 260653 261199 261655 262011 262301 262561 262812 263054 263282 263501
821.5269 263736 264011 264338 264712 265127 265589 266115 266714 267368 268024
826.3481 268623 269139 269606 270096 270676 271361 272099 272797 273375 273804
831.1693 274110 274356 274614 274940 275366 275891 276476 277053 277546 277914
835.9904 278170 278385 278646 279009 279473 279990 280506 280997 281468 281937
840.8116 282403 282846 283244 283608 283987 284448 285040 285754 286531 287283
845.6328 287945 288500 288978 289436 289910 290407 290900 291356 291768 292158
850.4539 292565 293021 293533 294088 294676 295304 295992 296746 297538 298312
855.2751 299017 299646 300245 300881 301590 302349 303086 303733 304279 304782
860.0963 305332 305998 306792 307677 308604 309550 310513 311500 312494 313463
864.9174 314378 315245 316104 317003 317952 318917 319837 320677 321471 322310
869.7386 323301 324500 325881 327352 328809 330185 331474 332708 333922 335128
874.5598 336319 337485 338630 339763 340886 341989 343057 344097 345155 346302
879.3809 347595 349044 350594 352146 353605 354923 356117 357245 358378 359561
884.2021 360808 362105 363431 364771 366125 367498 368891 370295 371686 373029
889.0233 374299 375489 376618 377722 378840 379995 381186 382397 383611 384808
893.8444 385975 387095 388156 389159 390138 391159 392297 393602 395064 396605
898.6656 398102 399434 400534 401413 402157 402887 403710 404676 405770 406924
903.4868 408062 409142 410176 411211 412294 413434 414586 415677 416659 417550
908.3079 418435 419418 420558 421825 423106 424266 425224 425994 426672 427376
913.1291 428185 429110 430099 431083 432013 432882 433729 434612 435588 436682
917.9503 437879 439136 440398 441627 442807 443937 445008 445994 446865 447604
922.7714 448234 448814 449419 450109 450898 451749 452583 453315 453882 454276
927.5926 454556 454828 455197 455718 456366 457046 457649 458104 458420 458668
932.4138 458936 459283 459710 460174 460616 461001 461324 461614 461909 462239
937.2349 462609 462994 463345 463615 463783 463874 463951 464083 464299 464566
942.0561 464793 464883 464796 464576 464336 464198 464226 464394 464606 464753
946.8773 464772 464667 464497 464328 464208 464152 464149 464178 464213 464218
951.6984 464158 464014 463793 463527 463258 463007 462771 462541 462323 462161
956.5196 462112 462215 462455 462763 463046 463227 463273 463190 463006 462752
961.3408 462457 462148 461855 461606 461418 461299 461252 461284 461395 461579
966.1619 461813 462073 462354 462682 463105 463663 464350 465102 465816 466394
970.9831 466788 467030 467217 467472 467903 468563 469442 470477 471582 472673
975.8043 473697 474632 475489 476291 477060 477806 478528 479225 479905 480596
980.6254 481340 482177 483120 484148 485209 486247 487231 488178 489143 490188
985.4466 491343 492588 493862 495093 496234 497277 498245 499179 500112 501066
990.2678 502046 503041 504029 504985 505893 506758 507598 508439 509292 510156
995.0889 511020 511885 512771 513706 514701 515738 516759 517699 518510 519180
999.9101 519739 520240 520732 521245 521783 522334 522884 523424 523954 524473
1004.7313 524969 525417 525786 526058 526234 526341 526408 526453 526469
1009.0703 526438 526351 526229 526115 526052 526049 526069 526050 525946
1013.4094 525763 525570 525459 525493 525657 525852 525941 525819 525464
1017.7484 524954 524424 523998 523727 523572 523433 523214 522881 522480
1022.0875 522102 521826 521664 521558 521415 521163 520786 520320 519816
1026.4265 519305 518795 518287 517804 517389 517080 516873 516704 516477
1030.7656 516116 515609 515014 514429 513935 513567 513306 513100 512894
1035.1046 512644 512313 511871 511306 510640 509937 509292 508783 508436
1039.4437 508206 508001 507733 507355 506884 506371 505870 505406 504968
1043.7827 504523 504042 503514 502955 502395 501861 501357 500855 500303
1048.1218 499655 498904 498095 497313 496635 496085 495617 495138 494561
1052.4608 493852 493046 492216 491436 490736 490107 489515 488933 488356
1056.7999 487789 487231 486663 486059 485409 484739 484108 483581 483187
1061.1389 482903 482655 482355 481934 481364 480658 479861 479036 478261
1065.4780 477613 477148 476873 476735 476630 476447 476120 475658 475137
1069.8170 474656 474277 474002 473773 473515 473170 472726 472208 471664
1074.1561 471143 470682 470307 470030 469846 469735 469664 469599 469518
1078.4951 469423 469335 469295 469350 469542 469895 470402 471029 471727
1082.8342 472448 473166 473874 474569 475241 475870 476436 476938 477392
1087.1732 477819 478221 478583 478885 479135 479376 479672 480073 480583
1091.5123 481165 481764 482349 482927 483542 484242 485047 485927 486809
1095.8513 487604 488251 488751 489176 489637 490238 491018 491935 492891
1100.1904 493787 494574 495278 495975 496751 497659 498693 499796 500885
1104.5294 501890 502782 503587 504371 505208 506142 507163 508217 509238
1108.8685 510182 511048 511875 512717 513625 514626 515719 516878 518062
1113.2075 519228 520345 521410 522440 523464 524500 525549 526606 527668
1117.5466 528752 529887 531093 532366 533668 534941 536138 537245 538296
1121.8856 539359 540503 541765 543130 544537 545911 547200 548403 549562
1126.2247 550731 551938 553166 554362 555478 556498 557455 558408 559418
1130.5637 560514 561687 562892 564063 565129 566031 566743 567283 567716
1134.9028 568144 568664 569331 570139 571019 571870 572604 573165 573540
1139.2418 573740 573779 573670 573439 573152 572920 572876 573123 573686
1143.5809 574492 575414 576332 577199 578061 579021 580176 581561 583130
1147.9199 584792 586449 588053 589618 591212 592923 594823 596937 599236
1152.2590 601657 604137 606638 609154 611689 614225 616723 619133 621437
1156.5980 623661 625860 628080 630327 632562 634732 636804 638780 640682
1160.9371 642521 644286 645945 647473 648874 650188 651478 652813 654246
1165.2761 655805 657494 659293 661170 663085 664989 666832 668576 670219
1169.6152 671808 673426 675136 676918 678636 680095 681150 681823 682329
1173.9542 682984 684027 685482 687125 688596 689567 689866 689499 688594
1178.2933 687345 686006 684925 684556 685360 687639 691370 696166 701403
1182.6323 706442 710833 714387 717123 719151 720608 721655 722511 723434
1186.9714 724641 726217 728074 730017 731858 733514 735017 736455 737897
1191.3104 739362 740841 742343 743911 745605 747458 749451 751514 753550
1195.6495 755468 757223 758840 760425 762137 764119 766429 768997 771649
1199.9885 774185 776475 778503 780364 782194 784104 786127 788215 790268
1204.3276 792183 793901 795436 796871 798324 799902 801664 803599 805621
1208.6666 807587 809322 810680 811610 812225 812798 813681 815148 817264
1213.0057 819843 822544 825040 827158 828904 830390 831716 832915 833983
1217.3447 834957 835951 837114 838541 840203 841965 843676 845264 846750
1221.6838 848183 849542 850716 851583 852144 852602 853306 854579 856529
1226.0228 858983 861575 863935 865864 867383 868655 869857 871077 872303
1230.3619 873474 874549 875538 876493 877474 878521 879639 880803 881975
1234.7009 883120 884211 885235 886190 887078 887908 888696 889482 890328
1239.0400 891309 892483 893838 895264 896559 897499 897954 897999 897927
1243.3790 898165 899083 900819 903215 905894 908445 910607 912345 913798
1247.7181 915151 916513 917873 919146 920251 921171 921948 922642 923282
1252.0571 923862 924369 924815 925218 925557 925748 925691 925364 924883
1256.3962 924409 923951 923199 921601 918721 914687 910398 907251 906491
1260.7352 908562 912867 918099 922891 926402 928499 929550 930054 930357
1265.0743 930583 930713 930710 930623 930636 931024 931999 933490 935024
1269.4133 935860 935415 933734 931674 930577 931584 934991 940066 945457
1273.7524 949893 952755 954209 954903 955521 956452 957738 959197 960605
1278.0914 961817 962813 963704 964703 966048 967885 970164 972617 974882
1282.4305 976700 978070 979210 980337 981384 981887 981201 978948 975424
1286.7695 971662 969021 968527 970366 973844 977826 981348 984007 985948
1291.1086 987549 989094 990641 992091 993300 994122 994394 993968 992849
1295.4476 991336 990010 989509 990197 991961 994268 996457 998048 998900
1299.7867 999157 999084 998921 998816 998813 998863 998852 998676 998320
1304.1257 997888 997504 997162 996629 995556 993768 991546 989677 989130
1308.4648 990506 993520 996862 998561 996777 990693 981100 970311 961354
1312.8038 956729 957319 962027 968345 973524 975668 974183 969475 962352
1317.1429 953695 944611 936770 932357 933370 940578 952841 967360 980824
1321.4819 990796 996549 998948 999611 999948 1000622 1001594 1002509 1003088
1325.8210 1003291 1003243 1003066 1002762 1002238 1001438 1000480 999658
1329.6780 999272 999386 999736 999922 999781 999608 999895 1000676 1000941
1334.0170 998750 992175 980522 964883 947421 929764 911730 891568 867884
1338.3561 842051 819269 807093 811919 835386 872930 915473 953329 980085
1342.6951 994413 999192 998969 997523 996765 996993 997698 998130 997482
1347.0342 995036 990564 984755 979195 975703 975404 978205 982971 988136
1351.3732 992190 993814 991972 986302 977714 968550 961787 959562 962005
1355.7123 967301 972928 977072 979126 979062 976442 970015 958125 939424
1360.0513 913339 880355 842580 804615 773806 758774 766074 796591 844002
1364.3904 896680 942171 971734 982591 977303 961498 941667 923869 913016
1368.7294 912103 921288 937406 954479 965232 963073 944004 908169 860760
1373.0685 811685 773356 756657 766516 799383 844369 887854 919238 934774
1377.4075 937659 934844 932853 935019 941198 949282 957003 962907 966436
1381.7466 967705 967449 966918 967116 967305 963730 950111 920742 875077
1386.0856 820906 773263 748452 756021 793412 846919 898714 935719 954810
1390.4247 961340 962493 960410 949942 922550 873618 808235 741479 692628
1394.7637 676219 694661 736344 780491 806671 804438 778230 744898 725070
1399.1028 733002 770370 826974 887012 936444 967129 976591 965656 937194
1403.4418 897048 855273 824798 816719 834722 872623 917215 954844 977537
1407.7809 985081 982559 975915 968790 962169 955998 950842 948279 950046
1412.1199 956752 966987 977250 982836 979533 965398 941455 910410 873895
1416.4590 830366 776060 709502 636968 574483 543317 560049 626445 725515
1420.7980 826970 899941 926445 908594 866062 825639 808685 822853 861509
1425.1371 909787 952816 981270 992016 985365 962512 925777 881024 838977
1429.4761 812527 810515 832137 866689 899724 921529 931478 934674 933568
1433.8152 921851 886790 819609 726616 632009 568691 561886 615792 711627
1438.1542 817865 905778 960960 985323 990719 989860 990204 992987 995973
1442.4933 996944 995675 993713 992520 991165 985147 967686 933713 884753
1446.8323 831369 790427 777482 798230 844414 897275 936886 951895 943991
1451.1714 924890 908235 901408 901577 897371 874637 823175 741559 638360
1455.5104 529631 433966 367286 339355 352835 404239 485456 585152 690334
1459.8495 788605 870674 931570 969413 982625 968428 925069 857073 779257
1464.1885 714796 686397 705148 764330 842772 915949 967656 995022 1004526
1468.5276 1002955 990126 958233 897845 806409 693938 582410 498645 463571
1472.8666 482745 543034 617946 679845 713051 720675 721156 736514 779332
1477.2057 845989 919424 978768 1009676 1009875 988222 959242 936652 928770
1481.5447 937003 957167 982336 1005525 1020874 1023355 1008436 973357 919904
1485.8838 856256 794948 746657 713615 688130 658715 620265 580724 558552
1490.2228 572061 628006 717168 819087 911311 976474 1004196 990202 936613
1494.5619 854069 762086 683881 636674 623731 634551 653778 672279 691945
1498.9009 720925 763938 816159 865654 901786 921971 930843 932631 923486
1503.2400 890718 820461 708634 567446 422722 303599 230912 210832 236300
1507.5790 293709 369681 454010 538609 615382 676247 715992 735676 743274
1511.9181 750117 764698 787431 809462 816333 794881 740375 660820 576200
1516.2571 512004 488784 511978 567296 625177 653320 631578 561698 466867
1520.5962 381399 335824 344472 400813 481904 559291 611201 630527 625204
1524.9352 611410 603886 609147 625175 646662 671066 700680 739436 787388
1529.2743 837361 876282 890189 869893 814753 733739 644025 567344 524304
1533.6133 527793 577898 660875 752910 826996 860093 838569 761431 641261
1537.9524 502062 373050 279267 232874 230089 256000 294262 335160 376893
1542.2914 420528 464156 502042 529704 550195 575249 618971 687832 773981
1546.6305 856801 912053 923340 889811 826870 760302 716570 712647 748713
1550.9695 806768 857045 871001 835589 761121 677105 616900 599232 617392
1555.3086 642833 641104 590497 492601 369790 253115 169142 132978 148818
1559.6476 213983 321379 458697 606874 741717 840110 888305 887623 854161
1563.9867 812474 786214 789589 822455 870315 909285 915103 873741 789496
1568.3257 686053 598364 558004 579082 652463 751659 846629 916809 955675
1572.6648 965548 948545 902041 822796 716279 602775 513619 478149 509157
1577.0038 596218 711129 821789 905909 957159 982150 992339 996856 999835
1581.3429 1001852 1002662 1002732 1003038 1004153 1005842 1007431 1008453
1585.1998 1008912 1009049 1008943 1008312 1006644 1003474 998664 992557 986031
1589.5389 980379 976941 976487 978568 981275 981762 977525 967854 954613
1593.8779 941710 933411 932400 938705 950062 963312 975810 986006 993156
1598.2170 996783 996541 992483 985284 975981 965460 954297 943279 934124
1602.5560 929439 931416 939955 951718 961244 963710 957562 945116 930698
1606.8951 917756 907203 898175 890405 885967 888587 900773 921024 943642
1611.2341 961789 971633 974108 972312 966057 948083 906168 831442 728106
1615.5732 617411 531467 498968 530842 614614 721074 818940 888270 924848
1619.9122 934510 923408 892320 839164 766914 689636 630552 611935 642739
1624.2513 711974 792412 852954 872987 851194 804748 760032 740040 754623
1628.5903 797798 852651 900766 931043 943212 944341 940752 930809 903813
1632.9294 846459 753178 633573 511619 416434 369849 377944 430842 509710
1637.2684 595853 676635 746163 802473 844594 871807 884889 887464 885533
1641.6075 884799 887061 887914 877547 844915 783564 696142 594976 498197
1645.9465 423485 382801 380472 414340 477668 559645 644604 712253 741277
1650.2856 716235 634703 510567 371141 249074 172566 157743 205475 302874
1654.6246 428277 557868 671958 759106 817044 850592 867960 877081 882985
1658.9637 886363 883350 866998 830973 774661 706990 645612 610340 613726
1663.3027 654478 718154 784726 837686 868642 875427 857299 812864 743140
1667.6418 656568 570102 503510 470111 470897 496560 535413 580231 628297
1671.9808 675432 710706 718508 688287 625093 552048 501215 497662 546460
1676.3199 630381 718990 783126 806783 791300 751688 708250 677443 665086
1680.6589 663939 656753 624291 555569 455635 346453 259440 222653 248782
1684.9980 329877 441191 551773 636366 683235 695328 685666 670187 661500
1689.3370 665729 682735 708543 738112 766830 790106 801860 793820 757403
1693.6761 688389 592219 486265 396176 346452 349093 396164 460943 508283
1698.0151 510059 458581 371270 283793 234372 246566 318916 426539 533511
1702.3542 609186 639829 630354 597235 558530 527303 510745 512596 534672
1706.6932 575564 628326 680674 719375 736742 734831 724137 717227 721163
1711.0323 733250 742470 735630 704765 651898 588582 530274 488302 463822
1715.3713 447598 426361 392337 350059 315724 308976 341923 412080 503247
1719.7104 593223 663299 704367 717545 710839 694770 679026 670416 671726
1724.0494 681487 695156 707634 715813 719365 719087 714264 701622 677454
1728.3885 641747 600974 566457 548216 547761 554879 551492 521340 460176
1732.7275 380308 306339 264161 269223 320362 401788 490924 566954 615938
1737.0667 631846 615759 575426 524951 482352 463647 475434 510725 551874
1741.4056 579930 584966 570820 551397 541359 547469 565680 584719 592922
1745.7448 584042 559448 526615 495323 473277 462828 460286 458566 452132
1750.0837 441463 433942 440093 467280 514795 573380 629159 669295 686235
1754.4229 679082 652704 615947 579670 554486 548011 562187 591912 625985
1758.7618 650548 654043 632007 589699 541009 503398 490647 506883 545205
1763.1010 591823 633122 661194 674640 675200 663913 640446 606046 566864
1767.4399 533650 516604 518460 530945 537925 524055 483919 426091 369640
1771.7791 335018 334397 366501 418297 472097 513981 539116 551659 560106
1776.1180 571281 586480 601477 609664 606041 589886 565233 539465 520840
1780.4572 515641 525645 546868 570579 586778 588845 576894 557753 541361
1784.7961 535660 542948 559593 578774 594132 602102 602022 594656 580520
1789.1353 559145 529593 491919 448844 406663 374421 360981 370879 401177
1793.4742 441676 479189 503869 513785 514672 514956 519467 526271 528731
1797.8134 521018 502837 479949 460433 449774 448399 452984 459883 467731
1802.1523 477444 490210 505507 520757 532633 538793 538834 534114 526939
1806.4915 519629 513687 509157 504436 496990 484960 468865 452137 439803
1810.8304 435902 441274 453173 466916 478328 485364 488061 487326 483763
1815.1696 477419 468401 457596 446775 437975 432597 430794 431446 432696
1819.5085 432772 430767 426987 422590 418557 414542 408477 397555 380307
1823.8477 358547 337689 324739 324722 337482 356829 372797 376084 362488
1828.1866 335115 303221 278243 268899 277686 300343 328357 353074 369253
1832.5258 376383 377440 376221 374991 373726 371045 365891 358714 351475
1836.8647 346566 345452 347844 351907 355314 356490 355212 352110 347370
1841.2039 339677 326482 305863 278922 250913 229762 222373 230815 250892
1845.5428 274185 292425 301485 302643 300672 300361 303828 310049 316362
1849.8820 320504 321776 320906 319129 317338 315808 314414 312988 311500
1854.2209 310033 308648 307293 305801 303983 301745 299174 296537 294161
1858.5601 292269 290861 289741 288659 287484 286293 285306 284714 284486
1862.8990 284268 283431 281276 277273 271220 263194 253372 241891 228993
1867.2382 215418 202786 193523 190128 194023 204656 219445 234740 247278
1871.5771 255346 259063 259769 259045 257977 256974 256018 255001 253889
1875.9163 252695 251408 249983 248407 246751 245147 243726 242559 241636
1880.2552 240872 240113 239161 237827 236005 233722 231139 228512 226171
1884.5944 224485 223756 223969 224516 224138 221330 215164 206086 196125
1888.9333 188178 184693 186470 192316 199716 206058 209651 210048 207737
1893.2725 203634 198776 194234 191030 189877 190844 193239 195899 197760
1897.6115 198329 197772 196609 195302 194038 192788 191487 190142 188798
1901.9506 187462 186097 184697 183347 182172 181208 180313 179215 177653
1906.2896 175510 172843 169817 166638 163554 160887 159025 158308 158843
1910.6287 160374 162304 163892 164553 164119 162911 161541 160509 159784
1914.9677 158647 155994 151013 143883 136027 129662 126798 128227 133060
1919.3068 139087 143752 145224 143050 138160 132348 127503 124938 125018
1923.6458 127160 130184 132831 134256 134258 133190 131636 130068 128675
1927.9849 127412 126158 124857 123539 122252 120993 119703 118320 116838
1932.3239 115324 113881 112578 111413 110327 109252 108162 107067 105978
1936.6630 104867 103690 102447 101213 100072 98962 97566 95396 92102 87833
1941.4841 83364 79830 78158 78546 80337 82385 83674 83792 83003 81918 81057
1946.7874 80589 80355 80082 79589 78856 77967 77022 76087 75194 74349 73532
1952.0907 72696 71779 70743 69611 68461 67383 66424 65554 64685 63715 62582
1957.3939 61290 59900 58501 57175 55978 54934 54034 53254 52560 51924 51322
1962.6973 50734 50131 49462 48656 47649 46428 45073 43760 42713 42108 41988
1968.0005 42235 42620 42908 42954 42741 42346 41869 41371 40864 40331 39767
1973.3038 39191 38640 38144 37712 37338 37012 36736 36534 36457 36581 36985
1978.6071 37727 38797 40105 41495 42796 43895 44766 45464 46077 46678 47298
1983.9104 47941 48592 49220 49765 50134 50248 50106 49830 49625 49661 49934
1989.2136 50228 50216 49676 48664 47542 46807 46830 47662 49023 50468 51613
1994.5170 52288 52550 52564 52484 52376 52228 52003 51687 51299 50872 50434
1999.8202 49992 49541 49067 48564 48037 47499 46959 46407 45802 45089 44225
2005.1235 43214 42129 41088 40215 39591 39227 39073 39054 39100 39163 39213
2010.4268 39235 39220 39174 39120 39083 39075 39065 38982 38748 38327 37764
2015.7301 37173 36698 36435 36392 36490 36615 36680 36662 36600 36557 36578
2021.0333 36671 36803 36924 36985 36959 36847 36678 36496 36337 36209 36090
2026.3367 35946 35757 35538 35339 35217 35211 35322 35519 35762 36018 36269
2031.6399 36506 36718 36895 37035 37155 37294 37499 37809 38233 38758 39357
2036.9432 40003 40677 41355 42003 42582 43074 43501 43930 44444 45096 45877
2042.2465 46714 47511 48204 48788 49310 49832 50395 51006 51649 52310 52986
2047.5498 53699 54500 55470 56723 58365 60439 62857 65393 67732 69592 70840
2052.8530 71547 71943 72305 72835 73591 74508 75467 76375 77197 77943 78636
2058.1563 79275 79841 80318 80725 81122 81583 82149 82786 83379 83790 83934
2063.4597 83855 83729 83790 84222 85070 86228 87499 88694 89703 90503 91134
2068.7629 91658 92132 92604 93119 93706 94378 95123 95917 96737 97570 98405
2074.0662 99228 100023 100775 101486 102176 102871 103601 104390 105251 106184
2078.8875 107174 108187 109183 110132 111027 111880 112702 113490 114220
2083.2263 114866 115420 115904 116366 116857 117400 117985 118565 119071
2087.5654 119439 119632 119663 119598 119530 119540 119654 119821 119931
2091.9045 119860 119524 118914 118101 117204 116351 115643 115141 114864
2096.2437 114809 114953 115255 115660 116104 116534 116926 117291 117658
2100.5825 118047 118449 118835 119178 119478 119764 120074 120418 120771
2104.9216 121091 121350 121560 121758 121984 122247 122531 122814 123094
2109.2607 123393 123742 124152 124600 125046 125449 125793 126086 126349
2113.5999 126593 126817 127008 127152 127248 127308 127343 127355 127316
2117.9387 127178 126891 126429 125811 125097 124360 123652 122979 122300
2122.2778 121556 120699 119721 118645 117506 116327 115102 113799 112386
2126.6169 110855 109237 107586 105952 104352 102756 101104 99341 97434 95381
2131.4380 93200 90909 88536 86125 83745 81483 79418 77596 76014 74639 73416
2136.7415 72299 71253 70261 69318 68425 67573 66732 65856 64893 63822 62669
2142.0447 61502 60399 59401 58490 57601 56658 55620 54497 53343 52221 51176
2147.3479 50221 49342 48515 47721 46955 46220 45522 44851 44179 43460 42648
2152.6511 41720 40687 39591 38480 37381 36282 35139 33897 32532 31076 29625
2157.9546 28327 27339 26789 26736 27152 27936 28936 30004 31029 31962 32811
2163.2578 33612 34397 35171 35924 36644 37345 38063 38831 39654 40495 41290
2168.5610 41988 42573 43073 43532 43981 44411 44790 45081 45263 45333 45298
2173.8643 45171 44976 44757 44582 44522 44618 44864 45207 45576 45905 46150
2179.1677 46292 46330 46286 46206 46159 46214 46411 46744 47173 47656 48173
2184.4709 48731 49338 49976 50594 51140 51585 51951 52295 52682 53148 53696
2189.7742 54301 54931 55556 56160 56734 57278 57792 58270 58699 59060 59345
2195.0774 59569 59774 60015 60335 60745 61223 61726 62213 62659 63061 63436
2200.3809 63812 64220 64676 65176 65693 66189 66628 66998 67301 67554 67772
2205.6841 67966 68151 68348 68580 68866 69206 69592 70013 70467 70957 71480
2210.9873 72008 72500 72919 73260 73551 73846 74185 74585 75029 75490 75951
2216.2905 76408 76868 77334 77801 78256 78689 79099 79497 79904 80338 80813
2221.5940 81328 81868 82405 82911 83373 83796 84200 84611 85051 85536 86081
2226.8972 86699 87391 88135 88876 89549 90108 90557 90951 91369 91873 92480
2232.2004 93158 93853 94525 95165 95791 96429 97097 97789 98485 99163 99809
2237.5037 100428 101040 101673 102345 103059 103802 104548 105280 105988
2241.8428 106673 107343 108006 108674 109359 110071 110807 111545 112256
2246.1819 112924 113563 114216 114927 115707 116514 117264 117884 118348
2250.5210 118695 119012 119384 119856 120417 121020 121610 122160 122685
2254.8599 123233 123867 124635 125556 126607 127737 128888 130008 131066
2259.1990 132046 132942 133757 134509 135231 135967 136753 137595 138464
2263.5381 139318 140124 140884 141634 142427 143304 144286 145373 146558
2267.8772 147829 149172 150562 151964 153345 154688 156005 157327 158690
2272.2161 160122 161631 163221 164892 166647 168481 170378 172304 174227
2276.5552 176133 178043 180005 182070 184269 186601 189043 191573 194184
2280.8943 196882 199665 202512 205380 208222 211007 213723 216369 218950
2285.2334 221463 223907 226281 228592 230847 233046 235189 237277 239317
2289.5723 241317 243279 245187 247015 248743 250365 251900 253365 254763
2293.9114 256065 257224 258210 259038 259773 260495 261256 262035 262749
2298.2505 263305 263658 263842 263950 264073 264254 264474 264678 264809
2302.5896 264817 264647 264212 263408 262153 260448 258401 256202 254041
2306.9285 252029 250160 248340 246453 244427 242268 240042 237834 235722
2311.2676 233776 232072 230692 229695 229069 228694 228357 227804 226814
2315.6067 225256 223095 220365 217135 213488 209524 205379 201236 197306
2319.9458 193788 190815 188437 186636 185402 184795 184954 186011 187926
2324.2847 190367 192711 194225 194346 192892 190097 186446 182425 178352
2328.6238 174370 170554 167014 163909 161381 159499 158260 157633 157555
2332.9629 157855 158171 157989 156861 154677 151816 149001 146926 145874
2337.3020 145576 145401 144743 143358 141466 139574 138192 137578 137673
2341.6409 138224 138987 139912 141175 143088 145994 150273 156490 165515
2345.9800 178327 195405 215906 237183 255161 265636 265941 256088 238729
2350.3191 217929 197485 179675 164989 152747 142003 132169 123126 114988
2354.6582 107831 101605 96190 91501 87501 84170 81460 79293 77602 76346 75509
2359.9614 75072 74989 75192 75611 76197 76949 77912 79159 80753 82719 85027
2365.2646 87614 90424 93444 96709 100283 104231 108591 113378 118593 124241
2370.0859 130333 136874 143856 151245 158986 167020 175304 183834 192636
2374.4248 201756 211224 221042 231178 241581 252202 263003 273948 284994
2378.7639 296074 307100 317971 328586 338849 348663 357929 366547 374420
2383.1030 381467 387635 392900 397272 400788 403515 405536 406944 407824
2387.4421 408240 408234 407845 407120 406121 404923 403592 402174 400692
2391.7810 399152 397556 395915 394246 392577 390934 389338 387793 386288
2396.1201 384802 383317 381821 380312 378783 377216 375593 373909 372189
2400.4592 370489 368868 367358 365936 364540 363092 361541 359881 358146
2404.7983 356390 354665 353018 351496 350152 349029 348145 347470 346928
2409.1372 346423 345875 345238 344508 343702 342843 341945 341029 340122
2413.4763 339259 338462 337722 337001 336241 335397 334462 333466 332461
2417.8154 331498 330609 329800 329061 328370 327703 327041 326365 325668
2422.1545 324950 324221 323492 322775 322071 321377 320686 319992 319297
2426.4934 318608 317936 317291 316675 316085 315514 314963 314436 313944
2430.8325 313490 313061 312634 312184 311704 311213 310744 310327 309968
2435.1716 309649 309340 309028 308723 308451 308236 308077 307943 307784
2439.5107 307560 307258 306898 306523 306174 305874 305620 305391 305169
2443.8496 304953 304764 304638 304602 304667 304817 305021 305238 305431
2448.1887 305570 305639 305643 305617 305618 305702 305903 306209 306566
2452.5278 306908 307184 307379 307515 307631 307760 307918 308106 308311
2456.8669 308519 308716 308889 309031 309137 309203 309222 309187 309093
2461.2058 308946 308768 308585 308420 308282 308164 308044 307897 307701
2465.5449 307447 307141 306801 306453 306120 305813 305530 305261 304997
2469.8840 304732 304464 304184 303880 303542 303167 302772 302385 302030
2474.2231 301719 301449 301206 300980 300768 300570 300384 300199 299999
2478.5620 299770 299503 299198 298861 298498 298118 297733 297356 297003
2482.9011 296682 296392 296121 295855 295594 295352 295153 295017 294941
2487.2402 294895 294833 294716 294534 294313 294096 293923 293804 293713
2491.5793 293606 293446 293222 292960 292700 292482 292325 292222 292152
2495.9182 292089 292010 291902 291762 291594 291411 291230 291060 290905
2500.2573 290758 290614 290470 290330 290192 290046 289877 289680 289473
2504.5964 289290 289164 289097 289062 289014 288933 288828 288730 288660
2508.9355 288606 288524 288372 288137 287846 287543 287266 287037 286861
2513.2744 286746 286702 286732 286815 286908 286963 286948 286863 286730
2517.6135 286575 286418 286269 286137 286039 285990 285993 286019 286021
2521.9526 285949 285782 285539 285278 285068 284957 284951 285017 285102
2526.2917 285162 285183 285174 285158 285156 285179 285231 285312 285416
2530.6306 285520 285593 285602 285542 285444 285367 285368 285469 285648
2534.9697 285853 286034 286170 286267 286348 286424 286492 286537 286553
2539.3088 286549 286549 286578 286655 286782 286952 287152 287364 287571
2543.6479 287755 287905 288016 288096 288164 288243 288357 288525 288758
2547.9868 289056 289407 289789 290165 290493 290736 290878 290940 290975
2552.3259 291051 291227 291524 291924 292378 292831 293243 293598 293904
2556.6650 294185 294466 294769 295102 295459 295823 296179 296524 296867
2561.0042 297226 297611 298024 298453 298890 299329 299771 300216 300659
2565.3430 301089 301504 301909 302323 302766 303258 303811 304421 305068
2569.6821 305714 306319 306859 307347 307840 308410 309105 309915 310774
2574.0212 311587 312279 312833 313285 313707 314169 314717 315371 316123
2578.3604 316943 317785 318599 319349 320033 320677 321329 322026 322783
2582.6995 323590 324433 325301 326196 327121 328075 329047 330025 331000
2587.0383 331969 332933 333891 334842 335789 336738 337697 338669 339659
2591.3774 340676 341740 342867 344063 345309 346565 347790 348966 350104
2595.7166 351241 352415 353646 354929 356238 357542 358822 360077 361329
2600.0557 362611 363951 365358 366815 368284 369728 371130 372499 373868
2604.3945 375268 376712 378196 379708 381243 382809 384423 386093 387812
2608.7336 389562 391319 393076 394834 396605 398398 400217 402060 403924
2613.0728 405807 407707 409624 411556 413504 415475 417479 419522 421599
2617.4119 423698 425802 427897 429984 432070 434166 436286 438443 440645
2621.7507 442902 445216 447586 450005 452469 454977 457525 460101 462684
2626.0898 465249 467785 470309 472856 475466 478151 480888 483625 486316
2630.4290 488947 491547 494174 496884 499705 502622 505589 508550 511466
2634.7681 514325 517158 520017 522962 526034 529236 532534 535864 539164
2639.1069 542393 545549 548659 551767 554912 558108 561348 564610 567876
2643.4460 571145 574434 577767 581161 584607 588082 591550 594987 598385
2647.7852 601753 605105 608453 611801 615150 618500 621859 625235 628633
2652.1243 632042 635438 638789 642069 645266 648387 651450 654471 657451
2656.4631 660376 663227 665988 668660 671253 673776 676228 678586 680818
2660.8022 682887 684770 686458 687958 689281 690438 691424 692227 692828
2665.1414 693218 693406 693427 693335 693188 693032 692881 692719 692508
2669.4805 692211 691814 691342 690855 690422 690091 689864 689686 689473
2673.8193 689145 688669 688069 687418 686793 686243 685769 685338 684915
2678.1584 684488 684075 683701 683368 683047 682685 682241 681705 681102
2682.4976 680475 679855 679252 678659 678072 677499 676959 676464 676011
2686.8367 675580 675147 674702 674250 673805 673370 672937 672488 672007
2691.1755 671494 670961 670419 669876 669331 668785 668243 667714 667200
2695.5146 666691 666179 665666 665173 664734 664367 664054 663744 663370
2699.8538 662891 662309 661666 661022 660421 659881 659391 658934 658499
2704.1929 658084 657687 657300 656906 656486 656032 655553 655070 654606
2708.5317 654166 653737 653296 652825 652324 651811 651315 650854 650431
2712.8708 650028 649619 649173 648675 648127 647551 646983 646457 645980
2717.2100 645525 645042 644486 643849 643172 642537 642019 641653 641407
2721.5491 641191 640906 640485 639938 639350 638842 638512 638374 638339
2725.8879 638250 637948 637351 636489 635485 634496 633641 632965 632435
2730.2271 631982 631541 631080 630596 630101 629602 629100 628593 628088
2734.5662 627608 627185 626840 626571 626345 626116 625840 625502 625111
2738.9053 624687 624238 623753 623206 622586 621912 621235 620608 620053
2743.2441 619548 619042 618497 617919 617363 616892 616534 616263 616012
2747.5833 615723 615377 614998 614620 614250 613858 613393 612826 612164
2751.9224 611455 610758 610116 609545 609032 608547 608053 607522 606943
2756.2615 606333 605733 605192 604742 604387 604099 603831 603538 603189
2760.6003 602770 602284 601749 601197 600665 600182 599756 599372 598998
2764.9395 598603 598171 597701 597212 596726 596260 595815 595372 594897
2769.2786 594354 593724 593017 592278 591565 590934 590427 590060 589831
2773.6177 589714 589656 589578 589395 589046 588523 587879 587193 586530
2777.9565 585909 585312 584711 584104 583525 583018 582596 582226 581846
2782.2957 581401 580883 580326 579784 579287 578828 578380 577929 577504
2786.6348 577161 576946 576848 576783 576636 576317 575814 575198 574563
2790.9739 573966 573389 572766 572037 571214 570371 569606 568971 568451
2795.3127 567992 567557 567160 566855 566676 566592 566508 566305 565906
2799.6519 565308 564569 563779 563016 562332 561747 561261 560848 560467
2803.9910 560072 559627 559117 558547 557935 557305 556694 556153 555739
2808.3301 555489 555391 555378 555343 555190 554868 554387 553791 553133
2812.6689 552447 551750 551054 550378 549753 549200 548721 548289 547861
2817.0081 547403 546901 546371 545847 545353 544898 544467 544044 543621
2821.3472 543205 542807 542426 542047 541644 541202 540726 540235 539746
2825.6863 539260 538760 538227 537653 537054 536465 535920 535442 535025
2830.0251 534637 534230 533761 533217 532624 532039 531519 531079 530676
2834.3643 530221 529635 528904 528106 527385 526877 526642 526618 526644
2838.7034 526528 526127 525390 524368 523170 521921 520716 519606 518598
2843.0425 517658 516731 515765 514737 513677 512669 511811 511167 510719
2847.3813 510369 509982 509448 508736 507902 507051 506284 505663 505199
2851.7205 504862 504605 504378 504141 503866 503549 503199 502836 502472
2856.0596 502120 501800 501556 501454 501547 501835 502228 502570 502701
2860.3987 502528 502076 501465 500849 500337 499955 499658 499375 499063
2864.7375 498724 498382 498061 497755 497435 497067 496631 496131 495582
2869.0767 495004 494415 493840 493324 492928 492714 492706 492871 493113
2873.4158 493306 493333 493123 492663 491990 491166 490262 489343 488470
2877.7549 487683 487001 486416 485907 485450 485035 484665 484347 484077
2882.0938 483833 483586 483307 482978 482593 482159 481688 481198 480710
2886.4329 480238 479786 479343 478892 478424 477948 477479 477025 476568
2890.7720 476058 475434 474660 473759 472825 471996 471398 471084 471006
2895.1111 471024 470964 470695 470179 469471 468679 467904 467194 466535
2899.4500 465887 465213 464516 463831 463210 462690 462281 461962 461689
2903.7891 461414 461096 460704 460220 459629 458930 458143 457319 456527
2908.1282 455831 455249 454735 454190 453516 452677 451718 450746 449861
2912.4673 449098 448411 447710 446920 446033 445103 444212 443422 442749
2916.8062 442162 441611 441051 440456 439817 439143 438452 437771 437131
2921.1453 436557 436064 435655 435317 435029 434766 434497 434195 433838
2925.4844 433423 432971 432536 432196 432036 432111 432420 432889 433390
2929.8235 433778 433939 433831 433485 432989 432449 431954 431556 431267
2934.1624 431063 430900 430739 430555 430353 430162 430021 429961 429985
2938.5015 430054 430103 430052 429854 429519 429122 428782 428597 428590
2942.8406 428691 428767 428698 428440 428040 427600 427201 426856 426504
2947.1797 426049 425411 424571 423571 422505 421498 420671 420110 419833
2951.5186 419773 419798 419761 419568 419206 418738 418258 417831 417472
2955.8577 417158 416855 416549 416244 415944 415644 415327 414997 414691
2960.1968 414480 414430 414559 414810 415066 415191 415097 414774 414293
2964.5359 413776 413346 413085 413012 413089 413235 413370 413450 413482
2968.8748 413512 413583 413693 413781 413753 413543 413172 412753 412444
2973.2139 412364 412525 412812 413035 413015 412675 412067 411347 410695
2977.5530 410234 409984 409883 409842 409806 409773 409768 409795 409810
2981.8921 409732 409496 409101 408610 408114 407672 407270 406837 406300
2986.2310 405642 404923 404253 403727 403381 403185 403075 403006 402977
2990.5701 403010 403104 403197 403169 402897 402325 401508 400609 399829
2994.9092 399333 399180 399316 399602 399877 400010 399929 399631 399169
2999.2483 398633 398119 397692 397358 397058 396698 396205 395585 394929
3003.5872 394374 394041 393974 394138 394430 394722 394881 394788 394372
3007.9263 393639 392689 391674 390725 389887 389124 388394 387742 387303
3012.2654 387221 387514 388018 388457 388601 388413 388050 387745 387651
3016.6045 387760 387953 388115 388218 388299 388377 388387 388202 387728
3020.9434 387003 386213 385599 385323 385377 385600 385781 385779 385576
3025.2825 385247 384895 384583 384320 384058 383698 383085 382043 380464
3029.6216 378431 376274 374498 373564 373655 374575 375857 377018 377805
3033.9607 378261 378609 379037 379558 380017 380220 380071 379623 379040
3038.2996 378499 378117 377931 377912 378000 378125 378224 378250 378179
3042.6387 378019 377811 377616 377486 377418 377329 377049 376383 375214
3046.9778 373600 371811 370265 369362 369312 370020 371124 372152 372744
3051.3169 372802 372491 372086 371760 371451 370916 369928 368498 366947
3055.6558 365778 365398 365882 366924 367997 368630 368630 368127 367448
3059.9949 366899 366593 366400 366042 365267 364007 362433 360879 359671
3064.3340 358983 358786 358939 359320 359905 360737 361808 362974 363979
3068.6731 364584 364699 364431 363993 363566 363207 362855 362423 361887
3073.0120 361306 360772 360350 360033 359757 359439 359009 358430 357706
3077.3511 356890 356082 355405 354958 354760 354733 354748 354704 354603
3081.6902 354552 354691 355088 355665 356216 356509 356412 355954 355300
3086.0293 354646 354125 353759 353505 353323 353224 353252 353419 353657
3090.3682 353826 353789 353485 352946 352239 351385 350331 349013 347477
3094.7073 345943 344760 344236 344459 345223 346116 346718 346782 346314
3099.0464 345505 344607 343822 343253 342930 342846 342981 343309 343773
3103.3855 344278 344691 344872 344725 344254 343592 342959 342582 342585
3107.7244 342939 343471 343951 344179 344051 343578 342866 342072 341346
3112.0635 340760 340263 339702 338923 337898 336795 335905 335466 335483
3116.4026 335707 335802 335596 335219 335018 335273 335940 336609 336733
3120.7417 335989 334513 332854 331666 331346 331833 332687 333369 333536
3125.0806 333190 332617 332197 332192 332651 333435 334332 335163 335814
3129.4197 336203 336220 335729 334655 333098 331382 329966 329248 329359
3133.7588 330095 331024 331712 331929 331711 331282 330890 330692 330716
3138.0979 330914 331211 331532 331798 331925 331841 331527 331033 330470
3142.4368 329960 329588 329379 329300 329284 329264 329189 329033 328791
3146.7759 328471 328084 327643 327161 326662 326186 325787 325523 325437
3151.1150 325539 325796 326140 326478 326722 326804 326694 326402 325971
3155.4541 325462 324944 324475 324098 323822 323633 323493 323364 323216
3159.7930 323040 322841 322630 322419 322215 322028 321865 321731 321622
3164.1321 321524 321423 321307 321169 321005 320806 320563 320269 319935
3168.4712 319586 319260 318994 318818 318745 318760 318814 318836 318758
3172.8103 318560 318284 318011 317785 317547 317125 316337 315130 313683
3177.1492 312384 311651 311719 312508 313660 314736 315432 315688 315639
3181.4883 315452 315194 314805 314194 313364 312468 311753 311422 311524
3185.8274 311937 312444 312856 313091 313173 313174 313146 313090 312989
3190.1665 312844 312691 312574 312510 312457 312350 312136 311808 311389
3194.5054 310882 310246 309422 308408 307326 306408 305900 305929 306429
3198.8445 307180 307924 308490 308848 309068 309230 309364 309450 309461
3203.1836 309406 309335 309307 309351 309455 309560 309575 309388 308887
3207.5227 308014 306828 305546 304501 304012 304209 304920 305715 306095
3211.8616 305748 304717 303383 302265 301765 301985 302733 303652 304403
3216.2007 304774 304699 304229 303485 302652 301953 301601 301719 302279
3220.5398 303114 303990 304720 305233 305563 305787 305944 306007 305900
3224.8789 305565 305012 304331 303650 303078 302659 302364 302135 301935
3229.2178 301768 301661 301630 301664 301754 301932 302277 302857 303637
3233.5569 304431 304959 304993 304499 303687 302908 302463 302451 302739
3237.8960 303064 303192 303042 302705 302375 302235 302348 302605 302738
3242.2351 302428 301472 299934 298199 296855 296442 297192 298910 301074
3246.5740 303085 304529 305289 305495 305375 305119 304839 304572 304295
3250.9131 303919 303308 302352 301088 299765 298772 298444 298861 299785
3255.2522 300802 301559 301948 302098 302220 302422 302649 302767 302707
3259.5913 302547 302461 302596 302965 303443 303845 304037 303996 303807
3263.9302 303595 303470 303478 303610 303810 304013 304157 304203 304144
3268.2693 304022 303926 303950 304124 304348 304386 303975 302989 301576
3272.6084 300126 299089 298729 298986 299550 300089 300459 300753 301157
3276.9475 301759 302455 303037 303369 303498 303610 303877 304317 304788
3281.2864 305103 305170 305058 304936 304960 305186 305557 305949 306227
3285.6255 306294 306100 305658 305045 304390 303822 303414 303146 302933
3289.9646 302686 302386 302107 301978 302112 302550 303246 304087 304936
3294.3037 305662 306162 306381 306331 306104 305840 305682 305716 305934
3298.6426 306249 306536 306685 306640 306407 306044 305642 305301 305100
3302.9817 305085 305256 305572 305957 306298 306454 306285 305709 304765
3307.3208 303650 302671 302132 302191 302775 303597 304292 304581 304405
3311.6599 303933 303474 303316 303602 304274 305123 305907 306453 306723
3315.9988 306792 306783 306790 306840 306903 306930 306900 306822 306723
3320.3379 306613 306471 306259 305955 305582 305211 304936 304824 304880
3324.6770 305045 305226 305343 305373 305350 305333 305369 305462 305587
3329.0161 305719 305865 306050 306282 306510 306629 306525 306140 305505
3333.3550 304716 303872 303032 302226 301516 301038 300978 301475 302510
3337.6941 303863 305187 306148 306569 306479 306072 305599 305264 305169
3342.0332 305299 305558 305815 305954 305921 305734 305462 305183 304935
3346.3723 304704 304457 304176 303901 303712 303698 303902 304299 304793
3350.7112 305258 305581 305697 305586 305264 304751 304074 303281 302463
3355.0503 301752 301277 301100 301183 301403 301621 301742 301738 301622
3359.3894 301414 301124 300785 300461 300227 300097 299979 299697 299102
3363.7285 298193 297156 296286 295833 295881 296327 296983 297697 298421
3368.0674 299182 299999 300830 301577 302140 302472 302579 302492 302232
3372.4065 301800 301214 300543 299906 299439 299236 299299 299535 299801
3376.7456 299967 299969 299828 299634 299498 299499 299649 299888 300099
3381.0847 300146 299918 299369 298538 297549 296577 295812 295400 295406
3385.4236 295788 296396 297020 297463 297627 297553 297379 297225 297077
3389.7627 296746 295969 294607 292822 291095 290048 290129 291354 293231
3394.1018 294963 295794 295359 293838 291856 290186 289408 289680 290741
3398.4409 292096 293277 294042 294400 294509 294515 294471 294351 294138
3402.7798 293882 293685 293624 293683 293756 293723 293534 293250 293001
3407.1189 292902 292984 293181 293372 293449 293365 293144 292855 292576
3411.4580 292358 292223 292169 292183 292245 292318 292355 292314 292187
3415.7971 291992 291732 291320 290555 289184 287068 284341 281456 279052
3420.1360 277696 277641 278744 280576 282645 284592 286257 287611 288645
3424.4751 289302 289496 289204 288533 287717 287026 286643 286579 286680
3428.8142 286728 286567 286180 285683 285241 284978 284932 285063 285299
3433.1533 285565 285799 285958 286020 285996 285919 285823 285726 285629
3437.4922 285533 285449 285357 285160 284657 283621 281933 279742 277500
3441.8313 275843 275312 276044 277580 278935 278951 276838 272654 267450
3446.1704 262945 260804 261887 265861 271394 276816 280862 283103 283869
3450.5095 283845 283623 283480 283421 283351 283207 282983 282689 282328
3454.8484 281904 281449 281017 280656 280380 280175 280018 279881 279695
3459.1875 279331 278626 277477 275956 274365 273153 272733 273259 274511
3463.5266 275959 276990 277184 276508 275322 274194 273631 273864 274779
3467.8657 276015 277159 277932 278281 278344 278331 278371 278426 278298
3472.2046 277750 276664 275167 273619 272482 272112 272591 273687 274963
3476.5437 275976 276447 276310 275629 274443 272680 270218 267089 263673
3480.8828 260701 259010 259145 261056 264092 267311 269902 271458 271954
3485.2219 271554 270436 268793 266964 265478 264913 265592 267361 269631
3489.5608 271680 273026 273616 273729 273703 273687 273562 273050 271903
3493.8999 270068 267762 265443 263686 262986 263546 265146 267203 269001
3498.2390 269976 269878 268720 266572 263410 259182 254055 248647 244015
3502.5781 241303 241261 243906 248551 254136 259620 264174 267154 268030
3506.9170 266474 262639 257391 252221 248730 247945 249866 253545 257639
3511.2561 261092 263523 265162 266472 267755 269002 269996 270524 270506
3515.5952 269983 269032 267716 266132 264505 263194 262547 262632 263013
3519.9343 262783 260930 256903 251063 244702 239546 236960 237291 239714
3524.2732 242659 244562 244536 242640 239696 236829 235002 234736 236065
3528.6123 238668 242053 245729 249325 252641 255645 258396 260904 262987
3532.9514 264214 264028 262064 258493 254181 250474 248649 249322 252139
3537.2905 255971 259490 261781 262644 262460 261768 260862 259614 257603
3541.6294 254391 249789 243977 237466 230942 225078 220394 217211 215702
3545.9685 215998 218235 222477 228511 235629 242566 247738 249747 247967
3550.3076 242919 236196 229955 226162 225931 229215 234935 241442 247124
3554.6467 250929 252638 252781 252219 251589 250936 249767 247526 244158
3558.9856 240317 237036 235064 234375 234226 233682 232160 229538 225798
3563.3247 220578 213127 202801 189762 175380 162027 152364 148518 151477
3567.6638 160851 174996 191430 207484 221026 230978 237371 240924 242455
3572.0029 242515 241425 239551 237456 235745 234750 234381 234300 234237
3576.3420 234148 234072 233876 233238 231951 230281 228967 228747 229731
3580.6809 231197 232032 231519 229794 227547 225166 222042 216693 207719
3585.0200 194945 179912 165376 154188 148303 148448 154360 165124 179216
3589.3591 194385 207810 216828 219957 217550 211521 204290 197638 192248
3593.6982 188098 185197 183961 184902 188004 192389 196617 199383 200089
3598.0371 198935 196626 194006 191878 190934 191666 194227 198362 203526
3602.3762 209064 214268 218261 219941 218256 212753 203998 193431 182712
3606.7153 173066 165184 159680 157475 159478 165605 173977 181215 183981
3611.0544 180844 173162 164360 158095 156534 159715 166043 173277 179286
3615.3933 182387 181478 176253 167438 156787 146671 139415 136678 139128
3619.7324 146410 157311 170050 182676 193509 201484 206264 208077 207443
3624.0715 204923 200894 195335 187646 176746 161679 142618 121732 103196 92009
3628.8926 91987 103943 125011 149562 171292 185538 190816 189018 184285 181097
3633.7139 182412 188610 197666 206371 211988 213480 211772 209008 207331
3638.0530 207850 210281 213311 215374 215407 213296 209884 206594 204824
3642.3918 205266 207400 209389 208549 202347 189587 171199 150137 130264
3646.7310 114715 104603 98844 95221 92071 89520 89515 94667 106658 125166
3651.5522 147785 170783 190128 202381 205407 199037 185542 169503 156637
3655.8911 151757 156757 169790 186255 201088 211059 215779 217057 217297
3660.2302 218079 219692 221578 223068 223827 223883 223446 222775 222090
3664.5693 221397 220227 217523 211899 202260 188414 171291 152673 134732
3668.9084 119746 110014 107642 113832 127798 145998 162519 170890 166695
3673.2473 149719 124458 98645 80384 75159 83951 103176 126397 147046 160972
3678.0686 167725 170052 171989 176625 184737 194850 204415 211230 214315
3682.4077 214025 211637 208757 206656 205567 204222 200081 190546 174720
3686.7466 154593 134628 119679 112476 112358 116163 120635 124595 129355
3691.0857 137226 149347 164492 179612 191577 198795 201696 201994 201478
3695.4248 201206 201458 202174 203331 204906 206502 207051 204977 198930
3699.7639 188777 176239 164667 157829 158216 165736 177622 189714 198468
3704.1028 202549 203042 202198 201560 200764 197844 190814 179369 165429
3708.4419 152061 141556 134111 128161 122140 116314 113184 116019 126506
3712.7810 143281 162427 179612 192291 200448 205541 208708 209762 207734
3717.1201 202355 195062 188531 184962 184435 184686 182600 176447 167269
3721.4590 158415 153498 154136 158938 164366 166857 164844 159493 153858
3725.7981 151162 153268 160103 170025 180583 189153 193304 191212 182304
3730.1372 167920 151320 136609 126848 122447 120990 118801 113356 104931 96411
3734.9583 91469 92470 99496 110886 124509 138634 151919 163031 170703 174428
3739.7795 175054 174385 173679 172129 166781 154410 134334 110178 89092 78591
3744.6006 82763 100042 123745 145016 156585 155539 143987 127536 112438 102800
3749.4219 99151 99045 99321 98646 98745 103420 115877 136090 160002 181275
3754.2429 194579 198370 195367 190466 187525 187165 187013 184084 177538
3758.5820 169834 165475 168254 178918 194767 211273 224413 232120 234186
3762.9211 231228 223949 213385 201693 192322 188832 192815 202331 212246
3767.2603 216633 211994 199366 184002 172788 170862 179343 195254 213440
3771.5991 229174 239980 245901 248492 249480 249945 250271 250429 250099
3775.9382 248505 244354 236354 224253 209748 196430 188499 188821 197481
3780.2773 211668 226912 238922 245024 244701 239304 231340 223698 218901
3784.6165 218464 222469 229618 237808 245012 250027 252727 253788 254141
3788.9553 254490 255093 255822 256391 256623 256600 256555 256512 255845
3793.2944 253150 246712 235524 220327 203966 190633 184179 186245 195153
3797.6335 206175 213185 211058 197829 175701 150401 129137 118038 120141
3801.9727 134677 157666 183264 205246 218334 219443 208790 190392 171248
3806.3115 159007 158905 171548 192869 216314 235969 248804 255020 256806
3810.6506 256660 256269 256123 255489 252489 244541 229512 207391 181484
3814.9897 158011 143811 143167 155481 175164 193824 203606 200123 183842
3819.3289 159651 135009 117452 112237 120850 140817 166843 192729 213294
3823.6677 225587 229165 225654 218013 209769 204293 204060 209915 220553
3828.0068 232567 241351 242828 235420 221245 205567 194368 191174 195065
3832.3459 201319 204455 201646 194103 185476 178653 173575 167792 159147
3836.6851 148183 138182 132851 133698 139318 146975 154882 163084 172331
3841.0239 182276 190908 195926 196873 196087 197505 204161 216231 230978
3845.3630 244436 253517 257185 256273 252419 246966 240361 232154 221385
3849.7021 207133 189009 167442 143732 119962 98879 83695 77559 82551 98484
3854.5232 122282 148667 172177 189561 201058 209678 218807 229676 240349
3858.8623 246917 246105 237578 224416 211442 202446 198085 195788 191769
3863.2014 183888 173554 165373 164643 174097 191805 211478 225050 226214
3867.5405 213175 189471 162660 141560 133076 139691 158462 182045 201592
3871.8794 210512 207412 196629 185906 182412 189331 204895 224107 241675
3876.2185 254107 259940 258688 250045 234313 213619 192471 176649 170751
3880.5576 175960 189490 205959 219675 226496 224635 214678 199357 183151
3884.8967 171392 168642 176886 194501 216726 237437 251257 255034 248345
3889.2356 233289 213953 195577 183266 180381 187252 201059 217173 231335
3893.5747 241418 247770 252021 255276 256926 254886 247081 233189 215450
3897.9138 197943 184681 177654 176025 176945 177386 175777 172442 168768
3902.2529 165975 164480 164251 165602 169570 177423 189648 205274 222067
3906.5918 237484 249697 258080 263031 265462 266347 266497 266464 266486
3910.9309 266501 266329 265925 265457 265017 264137 261576 255821 246198
3915.2700 233857 221792 213558 211362 214730 220769 225936 228196 228118
3919.6091 228193 230870 236679 243695 248608 248660 243194 234011 224503
3923.9480 218171 217305 222247 231402 241861 250451 254883 254557 250610
3928.2871 245144 240018 235943 232413 228495 223883 219463 216967 217979
3932.6262 222955 230913 239929 248085 254233 258181 260335 261183 261035
3936.9653 260126 258867 257888 257715 258264 258570 257097 252563 244870
3941.3042 235524 227220 222734 223650 229600 238388 246925 252506 253818
3945.6433 251234 246342 241030 236646 233668 231948 231256 231664 233478
3949.9824 236829 241287 245884 249577 251830 252868 253421 254158 255231
3954.3215 256261 256708 256316 255306 254223 253599 253681 254352 255210
3958.6604 255728 255430 254089 251893 249476 247723 247378 248659 251128
3962.9995 253924 256225 257634 258271 258525 258693 258759 258460 257559
3967.3386 256107 254499 253269 252776 252981 253471 253707 253351 252441
3971.6777 251333 250446 250000 249921 249958 249915 249823 249923 250488
3976.0166 251613 253120 254637 255788 256364 256376 255982 255369 254672
3980.3557 253973 253348 252904 252753 252944 253415 253999 254503 254806
3984.6948 254908 254911 254936 255029 255119 255043 254621 253764 252535
3989.0339 251168 250003 249363 249420 250099 251075 251892 252149 251691
3993.3728 250688 249566 248816 248764 249435 250562 251739 252618 253049
3997.7119 253096 252943 252765 252644 252564 252465
##END= 
