##TITLE= procaina HCl
##JCAMP-DX= 4.24
##DATA TYPE= INFRARED SPECTRUM
##ORIGIN= JASCO
##OWNER= 
##DATE= 22/02/17
##TIME= 12:50:22
##SPECTROMETER/DATA SYSTEM= 
##RESOLUTION= 
##DELTAX=   0.48211674
##XUNITS= 1/CM
##YUNITS= TRANSMITTANCE
##XFACTOR= 1.00000
##YFACTOR= 1E-005
##FIRSTX=   399.6748
##LASTX=  4000.1226
##NPOINTS=     7469
##FIRSTY=      0.36889
##MAXY=      0.48170
##MINY=      0.00000
##XYDATA= (X++(Y..Y))
399.6748 36889 36434 36219 36369 36839 37453 37994 38285 38263 38015 37735
404.9781 37628 37817 38296 38950 39608 40114 40376 40380 40183 39894 39661
410.2813 39644 39966 40648 41560 42447 43035 43155 42809 42154 41422 40820
415.5846 40468 40410 40655 41215 42090 43182 44132 44324 43555 42477 41748
420.8879 41506 41630 41986 42492 43107 43784 44432 44918 45121 44987 44567
426.1912 43988 43398 42893 42505 42227 42059 42012 42095 42285 42534 42793
431.4945 43053 43342 43696 44115 44561 44987 45381 45780 46248 46810 47406
436.7978 47902 48170 48169 47964 47681 47439 47299 47253 47236 47168 46997
442.1010 46727 46426 46191 46095 46148 46300 46466 46566 46550 46428 46270
447.4043 46175 46209 46368 46588 46783 46885 46870 46764 46620 46491 46407
452.7076 46364 46333 46272 46155 45983 45790 45627 45553 45614 45803 46026
458.0109 46135 46051 45824 45548 45281 45023 44738 44388 43973 43535 43134
463.3142 42805 42539 42285 41967 41525 40941 40256 39567 39007 38713 38768
468.6175 39160 39773 40450 41065 41564 41955 42285 42605 42938 43267 43559
473.9207 43793 43971 44095 44158 44143 44035 43836 43577 43313 43096 42968
479.2240 42937 42986 43081 43189 43285 43348 43345 43225 42937 42464 41862
484.5273 41244 40727 40367 40144 39992 39837 39631 39357 39012 38590 38073
489.8306 37438 36675 35797 34831 33800 32706 31528 30240 28833 27337 25826
495.1339 24421 23268 22515 22282 22633 23564 24985 26713 28505 30127 31414
500.4372 32296 32779 32910 32757 32384 31836 31128 30263 29249 28131 27001
505.7404 26002 25304 25038 25229 25776 26500 27230 27844 28285 28550 28664
511.0437 28668 28594 28472 28340 28263 28325 28597 29103 29809 30640 31508
516.3470 32336 33072 33700 34230 34679 35051 35338 35533 35641 35691 35721
521.6503 35759 35814 35877 35928 35955 35950 35909 35831 35717 35578 35443
526.9536 35341 35288 35278 35286 35277 35226 35129 35011 34909 34854 34851
532.2569 34878 34895 34861 34755 34584 34380 34182 34022 33910 33831 33754
537.5602 33650 33507 33338 33170 33028 32925 32851 32779 32684 32559 32420
542.8635 32300 32223 32192 32183 32156 32076 31928 31728 31506 31290 31087
548.1667 30889 30686 30476 30273 30103 29982 29909 29868 29828 29765 29662
553.4700 29519 29348 29170 29010 28883 28785 28697 28589 28435 28229 27985
558.7733 27734 27507 27325 27196 27112 27053 26986 26876 26696 26444 26147
564.0766 25854 25604 25408 25246 25075 24861 24593 24284 23953 23616 23279
569.3799 22957 22682 22508 22486 22647 22984 23454 23993 24538 25041 25475
574.6832 25827 26089 26258 26337 26335 26269 26153 26003 25834 25668 25524
579.9865 25410 25320 25236 25139 25024 24899 24778 24668 24564 24451 24315
585.2897 24150 23957 23749 23536 23328 23132 22954 22796 22661 22547 22452
590.5930 22364 22270 22154 22006 21829 21638 21451 21281 21128 20987 20852
595.8963 20722 20601 20496 20411 20340 20274 20208 20143 20084 20034 19988
601.1996 19933 19863 19781 19700 19636 19598 19584 19583 19586 19586 19582
606.5029 19572 19554 19524 19487 19455 19443 19469 19543 19666 19839 20060
611.8062 20330 20652 21033 21481 22007 22622 23336 24159 25099 26167 27366
617.1094 28685 30086 31518 32931 34291 35588 36822 37990 39076 40045 40857
622.4127 41468 41846 41968 41825 41425 40795 40001 39102 38157 37213 36294
627.7160 35410 34550 33697 32833 31948 31046 30147 29278 28461 27714 27040
633.0193 26438 25893 25375 24831 24185 23369 22357 21203 20039 19043 18393
638.3226 18210 18534 19318 20445 21752 23059 24203 25058 25565 25732 25635
643.6259 25379 25067 24772 24525 24329 24171 24035 23914 23805 23712 23641
648.9291 23591 23553 23515 23470 23421 23385 23373 23389 23422 23457 23485
654.2324 23513 23554 23618 23707 23809 23917 24032 24158 24300 24450 24593
659.5357 24717 24821 24918 25021 25136 25253 25358 25445 25525 25613 25720
664.8390 25836 25938 26004 26026 26026 26073 26265 26583 26836 26979 27073
670.1423 27145 27199 27236 27259 27275 27291 27312 27341 27374 27409 27447
675.4456 27492 27554 27636 27733 27837 27933 28010 28061 28088 28096 28094
680.7488 28093 28102 28130 28178 28244 28317 28380 28416 28414 28378 28326
686.0521 28279 28255 28249 28240 28198 28101 27953 27775 27598 27440 27297
691.3554 27147 26961 26713 26392 25997 25538 25027 24472 23880 23253 22598
696.6587 21941 21335 20862 20614 20663 21024 21646 22413 23180 23818 24250
701.9620 24475 24560 24616 24763 25094 25653 26421 27332 28291 29204 30002
707.2653 30646 31130 31467 31677 31786 31819 31801 31754 31691 31618 31525
712.5685 31398 31217 30968 30640 30226 29726 29111 28461 27769 27073 26404
717.8718 25781 25196 24628 24063 23510 23010 22616 22369 22274 22306 22432
723.1751 22622 22865 23161 23519 23941 24416 24919 25418 25879 26275 26590
728.4784 26819 26972 27068 27135 27196 27267 27344 27413 27454 27455 27418
733.7817 27360 27297 27239 27187 27132 27061 26966 26850 26730 26634 26600
739.0850 26668 26869 27215 27699 28288 28935 29590 30208 30760 31236 31641
744.3882 31990 32300 32584 32848 33089 33296 33453 33550 33587 33577 33544
749.6915 33515 33510 33534 33576 33613 33626 33601 33537 33442 33327 33200
754.9948 33061 32901 32704 32445 32105 31677 31183 30671 30201 29819 29534
760.2981 29309 29074 28748 28272 27621 26798 25826 24724 23503 22168 20728
765.6014 19201 17618 16013 14419 12861 11356 9924 8602 7440 6512 5899 5680
771.3868 5914 6634 7838 9482 11491 13762 16176 18616 20979 23189 25203 27004
777.1722 28596 29995 31221 32293 33228 34041 34741 35336 35834 36247 36590
782.4755 36878 37123 37324 37479 37583 37635 37645 37626 37588 37541 37482
787.7787 37406 37305 37171 36999 36786 36532 36235 35895 35513 35087 34615
793.0820 34095 33523 32895 32211 31478 30722 29988 29338 28842 28563 28539
798.3853 28775 29238 29869 30596 31347 32069 32725 33292 33762 34129 34396
803.6886 34572 34668 34699 34680 34623 34537 34430 34308 34172 34023 33857
808.9919 33672 33466 33242 33002 32746 32469 32161 31815 31422 30982 30497
814.2952 29972 29421 28866 28338 27874 27508 27265 27153 27171 27306 27540
819.5984 27855 28226 28626 29021 29372 29641 29794 29816 29711 29504 29232
824.9017 28930 28626 28340 28099 27939 27900 28011 28268 28625 29004 29320
830.2050 29508 29536 29407 29147 28789 28368 27921 27489 27119 26855 26722
835.5083 26719 26813 26953 27085 27168 27183 27134 27029 26875 26667 26385
840.8116 26004 25493 24824 23980 22953 21752 20404 18948 17432 15910 14434
846.1149 13052 11804 10717 9803 9064 8508 8161 8078 8334 9003 10130 11704
851.9003 13650 15846 18148 20417 22552 24489 26203 27691 28967 30049 30957
857.2036 31713 32339 32860 33298 33671 33990 34261 34485 34659 34783 34857
862.5068 34884 34869 34824 34763 34709 34685 34711 34796 34929 35088 35240
867.8101 35360 35433 35461 35460 35449 35444 35450 35466 35483 35493 35490
873.1134 35473 35446 35414 35380 35346 35311 35273 35233 35190 35147 35103
878.4167 35059 35011 34958 34897 34827 34744 34646 34532 34406 34272 34137
883.7200 34007 33883 33763 33640 33508 33362 33202 33032 32859 32690 32532
889.0233 32387 32252 32126 32003 31882 31759 31633 31497 31345 31170 30970
894.3265 30743 30488 30202 29879 29511 29089 28606 28061 27460 26825 26196
899.6298 25631 25200 24972 24992 25266 25751 26366 27008 27582 28015 28272
904.9331 28347 28255 28013 27635 27122 26469 25667 24718 23652 22541 21511
910.2364 20735 20394 20629 21483 22877 24625 26481 28214 29660 30750 31498
915.5397 31967 32235 32369 32418 32415 32386 32348 32314 32290 32276 32266
920.8430 32252 32229 32190 32134 32061 31976 31882 31782 31678 31570 31457
926.1462 31342 31225 31111 31001 30896 30797 30701 30606 30506 30401 30292
931.4495 30182 30075 29973 29878 29790 29705 29621 29535 29443 29346 29246
936.7528 29151 29069 29009 28972 28952 28938 28918 28885 28841 28791 28741
942.0561 28696 28655 28615 28572 28525 28473 28418 28360 28299 28234 28166
947.3594 28098 28031 27962 27890 27813 27733 27657 27593 27546 27514 27492
952.6627 27472 27445 27408 27362 27309 27252 27194 27131 27062 26985 26901
957.9659 26812 26721 26634 26551 26472 26395 26317 26237 26156 26076 25997
963.2692 25917 25833 25745 25651 25555 25459 25360 25250 25120 24965 24794
968.5725 24626 24491 24409 24386 24408 24450 24489 24512 24521 24525 24533
973.8758 24547 24563 24572 24567 24547 24511 24464 24411 24358 24310 24267
979.1791 24228 24190 24148 24101 24050 23998 23946 23893 23838 23776 23707
984.4824 23628 23540 23441 23331 23211 23085 22954 22823 22692 22560 22426
989.7856 22287 22142 21991 21832 21663 21483 21292 21092 20886 20676 20463
995.0889 20243 20012 19768 19508 19234 18947 18648 18339 18023 17706 17398
1000.3922 17115 16873 16695 16598 16594 16684 16851 17066 17291 17486 17620
1005.6955 17675 17642 17523 17321 17038 16677 16246 15765 15264 14783 14359
1010.9988 14016 13757 13562 13393 13210 12981 12692 12345 11959 11562 11187
1016.3021 10873 10661 10598 10727 11082 11679 12508 13533 14696 15923 17140
1021.6053 18279 19287 20133 20810 21324 21695 21947 22101 22175 22182 22132
1026.9087 22035 21902 21740 21558 21358 21143 20914 20671 20412 20136 19841
1032.2119 19527 19193 18842 18475 18093 17698 17288 16862 16422 15973 15527
1037.5153 15099 14710 14381 14126 13952 13854 13819 13826 13852 13875 13872
1042.8185 13827 13728 13571 13361 13108 12825 12525 12216 11906 11609 11342
1048.1218 11137 11027 11046 11220 11560 12061 12701 13443 14242 15046 15807
1053.4250 16487 17061 17516 17852 18078 18205 18247 18220 18139 18016 17859
1058.7284 17672 17454 17208 16935 16640 16323 15986 15623 15233 14820 14400
1064.0316 14000 13651 13375 13179 13051 12961 12877 12768 12616 12412 12159
1069.3350 11864 11539 11199 10861 10542 10260 10030 9864 9775 9770 9855 10028
1075.1204 10280 10592 10937 11287 11616 11903 12135 12304 12410 12454 12436
1080.4236 12361 12232 12061 11861 11650 11445 11257 11091 10947 10822 10716
1085.7269 10634 10584 10570 10596 10656 10743 10848 10960 11074 11187 11294
1091.0302 11394 11485 11564 11630 11680 11711 11722 11710 11676 11618 11541
1096.3335 11448 11345 11234 11117 10991 10851 10695 10523 10338 10144 9942
1101.6367 9731 9507 9269 9014 8745 8466 8181 7891 7600 7307 7013 6720 6426
1107.9043 6131 5831 5526 5217 4908 4608 4324 4064 3832 3632 3467 3339 3248
1114.1718 3195 3180 3207 3282 3409 3597 3853 4188 4612 5138 5782 6555 7462
1120.4393 8496 9643 10871 12143 13419 14657 15823 16891 17840 18655 19328
1125.7426 19856 20243 20499 20639 20679 20634 20513 20320 20057 19728 19342
1131.0459 18914 18463 18010 17579 17189 16858 16599 16420 16320 16290 16315
1136.3491 16374 16449 16526 16599 16666 16729 16793 16858 16926 16994 17064
1141.6525 17136 17212 17293 17376 17456 17523 17568 17583 17565 17515 17436
1146.9557 17331 17201 17046 16867 16668 16454 16227 15988 15735 15464 15175
1152.2590 14871 14561 14261 13985 13751 13575 13469 13434 13462 13530 13605
1157.5623 13652 13641 13551 13373 13112 12778 12387 11951 11481 10985 10466
1162.8656 9927 9376 8823 8289 7800 7384 7062 6843 6715 6655 6627 6600 6549
1169.1331 6461 6339 6194 6043 5908 5807 5757 5775 5886 6125 6542 7185 8081
1175.4006 9222 10550 11971 13378 14672 15793 16727 17508 18208 18913 19703
1180.7039 20627 21695 22875 24109 25330 26482 27522 28426 29179 29774 30213
1186.0072 30501 30653 30686 30621 30476 30269 30011 29716 29396 29062 28726
1191.3104 28391 28062 27740 27423 27113 26810 26515 26229 25954 25691 25442
1196.6138 25205 24979 24763 24555 24355 24164 23982 23807 23637 23469 23300
1201.9170 23128 22951 22771 22589 22409 22233 22060 21890 21725 21563 21404
1207.2203 21250 21102 20957 20817 20679 20544 20409 20276 20143 20013 19886
1212.5236 19763 19643 19527 19414 19301 19187 19073 18955 18834 18710 18582
1217.8269 18449 18314 18176 18038 17901 17762 17622 17479 17330 17177 17018
1223.1301 16854 16686 16513 16334 16147 15953 15753 15548 15340 15128 14913
1228.4335 14691 14461 14223 13975 13720 13459 13193 12923 12649 12371 12086
1233.7367 11793 11487 11165 10830 10488 10155 9856 9623 9483 9458 9550 9744
1239.5221 10006 10296 10572 10807 10983 11098 11160 11177 11162 11122 11065
1244.8254 10994 10911 10815 10709 10591 10464 10327 10182 10026 9861 9685 9500
1250.6108 9308 9108 8902 8692 8482 8273 8070 7872 7677 7481 7281 7074 6857
1256.8783 6631 6398 6161 5922 5681 5439 5195 4949 4704 4465 4237 4024 3829
1263.1459 3652 3492 3345 3207 3077 2956 2846 2751 2673 2614 2573 2547 2532
1269.4133 2524 2520 2521 2528 2545 2573 2613 2664 2724 2792 2868 2950 3037
1275.6809 3129 3224 3321 3420 3522 3629 3743 3862 3985 4105 4214 4304 4373
1281.9484 4420 4453 4482 4523 4595 4712 4890 5138 5460 5856 6322 6850 7424
1288.2159 8029 8647 9263 9868 10453 11017 11563 12103 12652 13228 13840 14493
1294.0013 15179 15885 16595 17292 17963 18595 19177 19699 20153 20528 20816
1299.3046 21004 21075 21013 20803 20435 19903 19202 18322 17253 15985 14530
1304.6079 12933 11281 9695 8306 7230 6545 6281 6416 6882 7575 8378 9183 9906
1310.8754 10498 10942 11247 11434 11530 11564 11562 11546 11538 11555 11611
1316.1787 11718 11883 12107 12393 12738 13135 13565 14002 14410 14756 15011
1321.4819 15154 15180 15103 14958 14798 14682 14666 14784 15047 15443 15944
1326.7853 16517 17124 17737 18336 18910 19453 19965 20443 20885 21289 21655
1332.0885 21983 22272 22521 22729 22895 23019 23104 23149 23153 23115 23034
1337.3918 22912 22750 22549 22308 22030 21724 21407 21094 20794 20507 20231
1342.6951 19964 19710 19476 19274 19111 18997 18933 18923 18965 19054 19182
1347.9984 19338 19505 19667 19809 19915 19976 19984 19937 19837 19686 19487
1353.3016 19236 18926 18551 18113 17618 17072 16470 15801 15062 14260 13415
1358.6050 12545 11658 10758 9852 8965 8134 7398 6791 6334 6034 5879 5845 5910
1364.8724 6062 6293 6596 6958 7353 7750 8117 8425 8654 8792 8835 8786 8648
1371.1400 8425 8121 7737 7270 6721 6105 5470 4884 4404 4051 3814 3675 3627
1377.4075 3675 3831 4103 4487 4969 5528 6135 6757 7350 7880 8330 8717 9086
1383.6750 9494 9990 10600 11342 12243 13348 14688 16207 17732 19057 20092
1388.9783 20876 21491 21996 22409 22718 22912 22994 22983 22892 22718 22439
1394.2816 22031 21501 20902 20300 19723 19164 18599 18012 17410 16847 16418
1399.5848 16204 16231 16489 16958 17610 18401 19274 20173 21063 21932 22765
1404.8882 23521 24144 24605 24920 25132 25281 25391 25468 25515 25531 25521
1410.1914 25491 25445 25383 25308 25218 25115 25003 24882 24755 24618 24468
1415.4948 24301 24120 23932 23746 23559 23358 23114 22805 22449 22105 21807
1420.7980 21544 21291 21018 20700 20316 19853 19325 18769 18218 17673 17112
1426.1013 16507 15850 15149 14423 13682 12905 12059 11132 10174 9276 8502 7849
1431.8867 7276 6743 6243 5804 5452 5190 4995 4831 4662 4469 4270 4101 3971
1438.1542 3858 3737 3596 3426 3230 3014 2787 2559 2338 2132 1950 1802 1692
1444.4218 1619 1576 1554 1542 1531 1513 1478 1418 1337 1244 1143 1037 922 797
1451.1714 668 547 448 378 337 320 319 328 342 358 376 394 411 421 420 410 395
1459.3673 380 364 348 330 310 288 266 244 224 209 204 215 242 281 328 389 471
1467.5634 589 749 954 1200 1479 1788 2134 2539 3044 3689 4439 5146 5680 6043
1474.3130 6295 6491 6658 6807 6931 7028 7106 7186 7288 7432 7635 7913 8273
1480.5804 8708 9191 9678 10128 10515 10832 11082 11273 11412 11514 11614 11776
1486.3658 12081 12586 13268 14045 14862 15750 16802 18064 19400 20548 21371
1491.6692 21932 22353 22713 23034 23308 23526 23691 23822 23936 24041 24124
1496.9724 24175 24194 24191 24173 24143 24104 24055 23997 23927 23844 23749
1502.2758 23647 23544 23444 23347 23246 23130 22976 22755 22462 22184 22011
1507.5790 21913 21818 21695 21547 21386 21217 21034 20820 20557 20242 19886
1512.8823 19509 19122 18723 18308 17867 17380 16788 16001 14991 13909 12978
1518.1855 12294 11818 11477 11227 11108 11349 12350 14168 16213 17976 19392
1523.4889 20571 21623 22615 23553 24378 25013 25425 25648 25750 25788 25793
1528.7921 25771 25720 25639 25535 25418 25293 25164 25026 24872 24701 24533
1534.0955 24391 24279 24184 24093 23999 23901 23800 23698 23588 23457 23294
1539.3987 23118 22975 22878 22799 22714 22623 22541 22479 22443 22430 22436
1544.7020 22457 22485 22509 22519 22511 22486 22445 22390 22321 22242 22161
1550.0052 22087 22022 21964 21908 21847 21778 21694 21587 21454 21314 21190
1555.3086 21093 21009 20925 20824 20687 20490 20217 19923 19739 19663 19605
1560.6118 19535 19452 19358 19253 19134 18997 18839 18659 18462 18256 18055
1565.9152 17869 17700 17548 17405 17257 17078 16832 16507 16152 15829 15550
1571.2184 15284 15007 14714 14426 14177 13997 13915 13976 14276 14936 15907
1576.5217 16822 17356 17535 17519 17411 17254 17061 16838 16595 16343 16091
1581.8250 15840 15593 15347 15105 14868 14635 14406 14181 13958 13738 13517
1587.1283 13297 13076 12856 12636 12417 12197 11976 11754 11534 11317 11109
1592.4315 10911 10720 10536 10354 10172 9990 9808 9623 9431 9228 9011 8781
1598.2169 8540 8292 8039 7783 7527 7275 7030 6796 6577 6373 6191 6035 5911
1604.4845 5822 5769 5754 5775 5832 5924 6050 6209 6410 6668 7004 7431 7950
1610.7520 8547 9210 9934 10714 11528 12329 13063 13694 14229 14710 15214 15815
1616.5374 16484 17050 17390 17543 17598 17613 17615 17612 17610 17612 17628
1621.8407 17680 17804 18047 18415 18835 19206 19486 19683 19818 19899 19921
1627.1439 19874 19753 19573 19362 19136 18899 18642 18356 18034 17687 17336
1632.4473 17004 16702 16419 16121 15755 15266 14676 14126 13712 13390 13091
1637.7505 12780 12457 12136 11828 11532 11242 10955 10674 10409 10174 9977
1643.0538 9818 9695 9602 9538 9506 9516 9584 9728 9949 10227 10536 10851 11151
1649.3213 11424 11666 11882 12075 12257 12448 12722 13263 14138 14932 15456
1654.6246 15856 16238 16638 17063 17505 17948 18370 18752 19081 19352 19566
1659.9279 19726 19838 19909 19946 19950 19915 19841 19735 19608 19467 19313
1665.2312 19146 18977 18817 18678 18559 18448 18323 18168 17991 17815 17651
1670.5344 17478 17267 17015 16747 16493 16265 16048 15801 15470 15017 14492
1675.8378 14013 13629 13302 12981 12635 12247 11807 11312 10771 10217 9696
1681.1410 9239 8850 8511 8182 7783 7173 6286 5432 4911 4624 4410 4201 3976
1687.4086 3733 3483 3241 3027 2855 2727 2636 2575 2539 2524 2527 2541 2559
1693.6760 2576 2591 2613 2658 2741 2855 2967 3059 3136 3201 3262 3346 3557
1699.9436 4086 4878 5533 5958 6301 6680 7168 7804 8589 9484 10432 11420 12473
1706.2111 13597 14726 15771 16695 17535 18365 19254 20228 21257 22267 23195
1711.5144 24017 24749 25425 26085 26776 27533 28339 29110 29758 30259 30673
1716.8176 31114 31707 32469 33216 33764 34115 34364 34580 34793 35010 35227
1722.1210 35444 35666 35893 36117 36322 36496 36634 36739 36816 36867 36891
1727.4242 36888 36860 36812 36754 36701 36673 36679 36710 36746 36774 36795
1732.7275 36838 36976 37305 37788 38227 38529 38740 38919 39095 39270 39442
1738.0308 39611 39795 40023 40306 40600 40842 41005 41105 41175 41245 41335
1743.3341 41447 41563 41665 41743 41798 41837 41865 41890 41917 41951 41987
1748.6373 42019 42037 42044 42047 42060 42094 42143 42189 42217 42221 42202
1753.9407 42165 42111 42044 41965 41879 41796 41724 41668 41626 41588 41547
1759.2439 41500 41447 41393 41349 41326 41330 41353 41376 41385 41377 41353
1764.5472 41315 41269 41217 41167 41127 41110 41133 41199 41292 41379 41437
1769.8505 41464 41464 41451 41444 41463 41509 41556 41581 41579 41557 41527
1775.1538 41499 41480 41474 41476 41478 41474 41461 41440 41414 41388 41366
1780.4570 41350 41336 41315 41281 41229 41159 41074 40980 40883 40793 40714
1785.7604 40646 40585 40527 40473 40420 40369 40317 40260 40199 40135 40073
1791.0636 40019 39980 39956 39940 39918 39881 39830 39769 39704 39642 39592
1796.3669 39555 39527 39500 39467 39427 39385 39347 39318 39301 39292 39288
1801.6702 39289 39295 39303 39309 39310 39303 39286 39261 39230 39193 39153
1806.9735 39111 39070 39028 38985 38939 38890 38839 38788 38743 38704 38670
1812.2767 38638 38606 38572 38538 38503 38467 38429 38388 38348 38312 38285
1817.5801 38268 38260 38258 38258 38256 38253 38246 38239 38230 38218 38202
1822.8833 38181 38153 38121 38089 38064 38050 38043 38034 38016 37984 37939
1828.1866 37883 37824 37774 37745 37738 37741 37739 37727 37702 37670 37635
1833.4899 37602 37574 37549 37523 37495 37463 37430 37398 37371 37348 37330
1838.7932 37314 37300 37286 37269 37248 37220 37182 37138 37089 37046 37021
1844.0964 37021 37040 37058 37063 37052 37029 37000 36972 36949 36931 36916
1849.3998 36899 36877 36849 36816 36780 36744 36708 36675 36642 36610 36577
1854.7030 36543 36507 36470 36433 36396 36359 36323 36288 36256 36224 36193
1860.0063 36162 36131 36101 36072 36045 36020 35993 35965 35935 35901 35865
1865.3096 35827 35785 35742 35697 35654 35617 35590 35575 35571 35572 35570
1870.6129 35561 35543 35517 35485 35450 35411 35372 35332 35291 35250 35209
1875.9161 35169 35131 35094 35056 35017 34975 34930 34884 34838 34794 34751
1881.2195 34710 34669 34627 34581 34531 34478 34426 34377 34332 34288 34244
1886.5228 34196 34140 34076 34005 33927 33846 33767 33690 33613 33531 33437
1891.8260 33327 33199 33048 32870 32657 32406 32123 31830 31564 31364 31257
1897.1294 31255 31355 31537 31773 32024 32261 32463 32624 32750 32848 32926
1902.4326 32986 33032 33062 33076 33076 33063 33040 33011 32976 32938 32894
1907.7360 32844 32787 32726 32662 32597 32534 32471 32407 32338 32264 32185
1913.0392 32104 32019 31931 31837 31736 31629 31512 31382 31234 31066 30884
1918.3425 30707 30553 30436 30362 30336 30363 30451 30602 30804 31034 31258
1923.6458 31450 31599 31704 31775 31817 31838 31842 31831 31808 31775 31733
1928.9491 31685 31630 31568 31499 31422 31337 31243 31137 31013 30864 30683
1934.2523 30465 30210 29928 29640 29375 29169 29053 29053 29176 29410 29722
1939.5557 30064 30397 30694 30950 31171 31362 31527 31663 31769 31847 31907
1944.8589 31956 31999 32039 32072 32096 32106 32103 32089 32069 32050 32040
1950.1622 32039 32047 32059 32070 32076 32077 32072 32061 32047 32035 32023
1955.4655 32003 31955 31858 31704 31510 31320 31188 31154 31223 31365 31528
1960.7688 31664 31748 31782 31787 31783 31782 31787 31792 31794 31793 31790
1966.0720 31787 31788 31793 31801 31811 31819 31824 31824 31819 31811 31800
1971.3754 31789 31775 31760 31743 31724 31704 31684 31664 31645 31626 31607
1976.6786 31588 31568 31548 31529 31512 31497 31485 31476 31469 31463 31456
1981.9819 31449 31440 31431 31422 31414 31409 31404 31398 31389 31376 31358
1987.2852 31338 31317 31297 31278 31257 31234 31207 31179 31152 31129 31112
1992.5885 31100 31089 31077 31061 31042 31021 30997 30972 30944 30914 30881
1997.8917 30847 30812 30778 30745 30713 30681 30650 30619 30586 30553 30519
2003.1951 30485 30450 30415 30378 30340 30300 30258 30213 30167 30120 30071
2008.4983 30022 29972 29921 29870 29817 29764 29711 29659 29611 29567 29528
2013.8016 29494 29462 29432 29403 29377 29355 29338 29325 29316 29307 29299
2019.1049 29292 29288 29288 29292 29300 29311 29325 29344 29365 29390 29415
2024.4082 29439 29460 29475 29479 29468 29438 29394 29343 29298 29272 29269
2029.7114 29283 29304 29319 29322 29312 29294 29273 29252 29234 29216 29198
2035.0148 29178 29156 29134 29110 29084 29055 29023 28988 28950 28911 28870
2040.3180 28828 28786 28743 28698 28653 28605 28557 28510 28465 28423 28385
2045.6213 28350 28316 28283 28252 28224 28200 28181 28165 28153 28145 28139
2050.9246 28138 28140 28147 28157 28169 28184 28199 28216 28232 28247 28261
2056.2278 28275 28288 28302 28317 28333 28350 28365 28378 28388 28394 28397
2061.5313 28398 28398 28397 28396 28393 28390 28386 28382 28379 28378 28377
2066.8345 28378 28380 28382 28384 28386 28388 28389 28388 28385 28380 28372
2072.1377 28361 28345 28328 28309 28291 28274 28259 28244 28230 28214 28197
2077.4409 28180 28162 28144 28127 28112 28099 28088 28080 28071 28060 28046
2082.7444 28030 28012 27995 27982 27971 27961 27950 27937 27920 27901 27883
2088.0476 27866 27852 27841 27831 27820 27807 27791 27773 27755 27740 27728
2093.3508 27718 27708 27695 27677 27655 27630 27605 27582 27562 27546 27530
2098.6541 27512 27489 27461 27429 27397 27368 27345 27326 27309 27292 27271
2103.9575 27246 27218 27192 27168 27147 27127 27107 27083 27054 27022 26989
2109.2607 26960 26934 26912 26891 26868 26841 26811 26780 26754 26733 26720
2114.5640 26710 26701 26689 26674 26657 26640 26626 26617 26610 26602 26589
2119.8672 26570 26544 26515 26486 26460 26435 26408 26377 26339 26295 26248
2125.1707 26205 26169 26140 26118 26100 26083 26067 26055 26049 26052 26063
2130.4739 26081 26101 26119 26136 26149 26162 26174 26187 26200 26209 26214
2135.7771 26214 26210 26203 26196 26188 26180 26172 26162 26150 26136 26120
2141.0803 26101 26082 26061 26041 26019 25998 25975 25951 25926 25900 25872
2146.3838 25844 25815 25787 25760 25735 25714 25695 25678 25661 25643 25623
2151.6870 25603 25583 25565 25549 25534 25516 25497 25477 25458 25442 25430
2156.9902 25421 25411 25396 25375 25348 25321 25296 25276 25261 25246 25230
2162.2935 25209 25185 25164 25148 25139 25133 25128 25118 25103 25086 25070
2167.5969 25060 25055 25051 25043 25030 25013 24995 24981 24971 24962 24952
2172.9001 24938 24920 24902 24887 24875 24863 24849 24828 24801 24771 24744
2178.2034 24720 24700 24680 24657 24628 24595 24561 24529 24499 24470 24438
2183.5066 24403 24366 24331 24298 24268 24239 24209 24175 24140 24105 24073
2188.8101 24044 24019 23994 23968 23941 23915 23890 23867 23846 23827 23809
2194.1133 23791 23774 23757 23739 23720 23699 23675 23652 23628 23607 23587
2199.4165 23567 23546 23523 23498 23471 23443 23414 23382 23349 23314 23281
2204.7197 23250 23221 23193 23167 23140 23113 23088 23063 23040 23017 22994
2210.0232 22973 22952 22933 22915 22899 22883 22869 22857 22847 22840 22835
2215.3264 22829 22820 22805 22782 22753 22719 22684 22650 22617 22586 22557
2220.6296 22528 22500 22472 22447 22424 22405 22390 22378 22372 22370 22373
2225.9329 22379 22389 22401 22414 22425 22435 22444 22452 22460 22467 22475
2231.2363 22480 22483 22483 22480 22475 22470 22465 22458 22450 22440 22427
2236.5396 22412 22396 22377 22354 22327 22297 22265 22231 22199 22169 22141
2241.8428 22117 22097 22080 22067 22058 22052 22049 22049 22053 22061 22069
2247.1460 22077 22083 22086 22084 22078 22069 22056 22040 22021 21999 21974
2252.4495 21946 21918 21890 21862 21836 21810 21784 21756 21728 21699 21672
2257.7527 21646 21624 21603 21584 21565 21547 21530 21516 21506 21499 21495
2263.0559 21491 21486 21480 21472 21463 21453 21439 21423 21402 21377 21349
2268.3591 21320 21289 21256 21221 21183 21142 21098 21052 21005 20959 20915
2273.6626 20876 20840 20808 20778 20747 20716 20684 20652 20621 20591 20562
2278.9658 20535 20510 20485 20462 20439 20416 20393 20372 20353 20335 20320
2284.2690 20307 20297 20289 20284 20282 20282 20283 20285 20286 20288 20288
2289.5723 20286 20280 20271 20258 20243 20224 20204 20181 20156 20128 20097
2294.8757 20062 20026 19988 19950 19912 19875 19838 19803 19769 19735 19701
2300.1790 19667 19630 19590 19547 19500 19451 19402 19355 19311 19268 19225
2305.4822 19181 19136 19092 19051 19013 18977 18942 18908 18875 18845 18820
2310.7854 18802 18789 18781 18776 18773 18773 18776 18781 18786 18790 18790
2316.0889 18785 18776 18762 18744 18724 18702 18682 18663 18647 18632 18616
2321.3921 18598 18577 18554 18529 18503 18476 18446 18413 18379 18345 18312
2326.6953 18276 18236 18191 18140 18089 18040 17996 17957 17923 17892 17865
2331.9985 17841 17819 17797 17771 17742 17712 17684 17659 17639 17619 17595
2337.3020 17566 17531 17493 17452 17409 17364 17316 17264 17212 17163 17119
2342.6052 17080 17044 17007 16968 16930 16899 16879 16868 16859 16846 16822
2347.9084 16787 16743 16692 16637 16580 16523 16467 16411 16355 16299 16245
2353.2117 16198 16162 16138 16125 16118 16109 16094 16071 16041 16010 15984
2358.5151 15965 15953 15946 15944 15944 15947 15951 15955 15955 15951 15946
2363.8184 15942 15941 15943 15945 15942 15933 15918 15899 15876 15851 15820
2369.1216 15783 15743 15703 15666 15632 15599 15561 15514 15459 15400 15343
2374.4248 15294 15251 15214 15176 15136 15092 15047 15004 14964 14929 14896
2379.7283 14861 14824 14783 14737 14687 14635 14579 14521 14461 14397 14330
2385.0315 14259 14187 14115 14047 13985 13931 13885 13846 13815 13792 13775
2390.3347 13763 13756 13751 13746 13738 13729 13717 13704 13689 13675 13662
2395.6379 13652 13647 13648 13654 13667 13684 13705 13730 13757 13784 13810
2400.9414 13830 13842 13844 13836 13821 13799 13773 13742 13706 13665 13617
2406.2446 13563 13504 13441 13377 13312 13246 13181 13115 13046 12975 12901
2411.5479 12827 12755 12686 12621 12563 12509 12461 12417 12377 12339 12303
2416.8511 12268 12233 12196 12157 12117 12073 12027 11978 11926 11873 11820
2422.1545 11769 11721 11676 11634 11596 11562 11531 11505 11482 11462 11444
2427.4578 11428 11414 11402 11391 11380 11369 11357 11343 11328 11313 11296
2432.7610 11279 11260 11239 11216 11192 11168 11145 11122 11100 11078 11056
2438.0642 11035 11015 10995 10975 10953 10926 10895 10860 10823 10784 10743
2443.3677 10701 10655 10608 10558 10507 10457 10407 10360 10316 10274 10235
2448.6709 10198 10162 10126 10089 10051 10012 9971 9928 9881 9832 9780 9726
2454.4563 9670 9614 9558 9500 9443 9386 9328 9271 9214 9156 9099 9043 8990
2460.7239 8941 8894 8851 8809 8766 8722 8674 8622 8567 8508 8448 8387 8326
2466.9912 8265 8202 8136 8068 7997 7924 7851 7777 7704 7631 7558 7485 7413
2473.2588 7340 7268 7197 7130 7064 7001 6939 6875 6811 6748 6688 6633 6586
2479.5264 6545 6509 6478 6450 6426 6405 6388 6374 6363 6355 6348 6344 6340
2485.7939 6335 6327 6314 6295 6271 6244 6214 6182 6150 6117 6083 6049 6017
2492.0613 5988 5965 5949 5942 5942 5951 5968 5992 6025 6065 6113 6166 6224
2498.3289 6285 6348 6414 6481 6551 6625 6705 6790 6882 6980 7084 7195 7313
2504.5964 7440 7574 7717 7867 8022 8181 8339 8492 8638 8772 8891 8993 9075
2510.8640 9136 9175 9192 9189 9169 9134 9086 9026 8957 8880 8797 8711 8627
2517.1313 8547 8474 8410 8355 8309 8272 8243 8222 8210 8206 8210 8220 8236
2523.3989 8253 8273 8291 8307 8317 8321 8315 8301 8279 8251 8218 8181 8142
2529.6665 8101 8059 8016 7974 7932 7891 7851 7811 7772 7734 7698 7664 7633
2535.9341 7607 7588 7575 7571 7577 7592 7618 7654 7700 7753 7812 7872 7930
2542.2014 7982 8025 8054 8067 8063 8044 8008 7959 7897 7825 7744 7657 7570
2548.4690 7484 7403 7328 7260 7199 7146 7101 7063 7032 7007 6988 6975 6971
2554.7366 6974 6985 7002 7023 7047 7073 7100 7127 7152 7173 7187 7193 7190
2561.0042 7176 7150 7111 7061 7000 6931 6857 6777 6694 6608 6518 6427 6336
2567.2715 6248 6162 6079 5998 5917 5836 5756 5678 5604 5533 5468 5406 5350
2573.5391 5298 5250 5205 5164 5125 5089 5058 5030 5007 4988 4971 4956 4941
2579.8066 4926 4910 4893 4874 4855 4836 4818 4803 4791 4783 4779 4779 4783
2586.0742 4789 4799 4812 4827 4845 4864 4887 4913 4943 4976 5011 5049 5089
2592.3416 5131 5177 5226 5279 5335 5394 5456 5519 5584 5651 5720 5789 5857
2598.6091 5924 5987 6048 6108 6168 6230 6293 6359 6427 6497 6571 6649 6731
2604.8767 6818 6909 7002 7096 7191 7285 7380 7473 7564 7653 7738 7819 7895
2611.1443 7967 8035 8098 8158 8214 8268 8319 8367 8411 8450 8485 8515 8539
2617.4116 8559 8573 8583 8588 8589 8587 8585 8583 8584 8589 8598 8613 8633
2623.6792 8660 8691 8728 8770 8818 8869 8926 8987 9051 9118 9185 9252 9317
2629.9468 9382 9445 9509 9573 9638 9702 9764 9823 9879 9930 9977 10019 10055
2636.2144 10085 10107 10120 10123 10118 10105 10084 10055 10019 9975 9925 9871
2641.9998 9815 9759 9708 9663 9625 9596 9576 9566 9565 9572 9588 9610 9639
2648.2671 9674 9714 9759 9807 9857 9904 9948 9989 10026 10062 10100 10139
2654.0525 10180 10220 10258 10292 10320 10342 10358 10373 10386 10399 10412
2659.3560 10424 10436 10445 10455 10466 10481 10500 10522 10545 10565 10584
2664.6592 10599 10615 10633 10655 10681 10711 10746 10785 10829 10879 10936
2669.9624 10999 11069 11144 11223 11306 11391 11479 11568 11659 11751 11843
2675.2656 11934 12024 12110 12193 12271 12345 12416 12485 12551 12613 12670
2680.5691 12719 12763 12801 12836 12869 12902 12933 12963 12992 13020 13050
2685.8723 13083 13121 13163 13209 13260 13316 13377 13444 13517 13596 13679
2691.1755 13765 13854 13944 14035 14125 14212 14296 14373 14443 14507 14566
2696.4788 14621 14674 14727 14779 14831 14882 14930 14978 15026 15074 15124
2701.7822 15172 15218 15259 15293 15320 15340 15353 15359 15358 15350 15335
2707.0854 15314 15288 15257 15224 15189 15154 15118 15082 15044 15003 14960
2712.3887 14913 14861 14807 14750 14692 14635 14580 14528 14479 14431 14384
2717.6919 14338 14297 14260 14230 14206 14184 14164 14142 14119 14095 14070
2722.9954 14046 14021 13997 13972 13948 13929 13917 13914 13922 13942 13972
2728.2986 14014 14065 14126 14197 14274 14356 14440 14525 14609 14691 14771
2733.6018 14846 14914 14975 15029 15076 15118 15156 15193 15227 15257 15283
2738.9050 15305 15324 15342 15360 15380 15402 15423 15443 15462 15479 15497
2744.2085 15515 15534 15553 15569 15583 15594 15604 15616 15631 15650 15673
2749.5117 15700 15730 15761 15791 15820 15846 15871 15895 15918 15938 15954
2754.8149 15965 15969 15967 15961 15950 15933 15911 15882 15849 15812 15771
2760.1182 15726 15676 15621 15560 15495 15425 15350 15268 15179 15085 14986
2765.4216 14883 14777 14669 14560 14451 14342 14233 14124 14016 13911 13811
2770.7249 13720 13639 13570 13511 13462 13420 13388 13366 13355 13355 13364
2776.0281 13380 13399 13420 13442 13467 13492 13520 13550 13582 13617 13653
2781.3313 13692 13731 13769 13805 13837 13865 13889 13909 13925 13939 13952
2786.6348 13965 13978 13990 13999 14003 14001 13994 13982 13965 13945 13922
2791.9380 13895 13866 13833 13796 13757 13714 13668 13619 13567 13511 13449
2797.2412 13380 13306 13225 13137 13042 12938 12825 12701 12569 12428 12282
2802.5444 12131 11979 11825 11670 11516 11361 11207 11054 10903 10755 10610
2807.8479 10469 10332 10202 10077 9960 9852 9752 9661 9578 9502 9431 9363 9297
2814.1152 9233 9170 9109 9046 8980 8908 8829 8741 8644 8538 8425 8304 8177
2820.3828 8045 7908 7766 7620 7467 7306 7138 6960 6773 6579 6378 6172 5963
2826.6504 5748 5527 5298 5059 4811 4555 4295 4033 3773 3515 3260 3008 2761
2832.9180 2521 2290 2067 1852 1644 1444 1255 1084 934 808 703 613 532 456 384
2840.1497 316 254 200 155 117 86 62 42 25 10 0 0 0 0 0 7 15 18 17 12 6 1 0 0 0
2852.2026 0 2 4 4 2 0 0 0 0 0 0 0 0 0 0 8 17 26 32 37 40 42 41 38 33 26 19 15
2865.7019 15 19 25 30 33 34 31 28 24 23 23 25 27 30 34 38 42 46 52 57 63 67 72
2876.7905 76 81 86 91 94 95 93 87 80 74 72 72 74 75 74 69 62 53 44 38 36 38 42
2887.8792 47 50 49 45 38 31 26 24 25 26 26 25 21 15 10 6 5 6 10 15 19 23 25 26
2899.4500 26 24 21 15 9 3 1 1 4 8 10 10 8 6 6 7 11 16 20 23 24 24 23 19 12 2 0
2912.4673 0 0 0 0 6 17 22 22 19 14 10 6 3 0 0 0 0 0 3 7 8 6 3 0 0 0 0 1 3 6 10
2927.4128 15 19 23 24 23 18 12 6 1 0 0 0 2 4 7 10 11 11 9 5 1 0 0 3 10 17 23
2940.4299 25 25 21 16 12 11 12 14 16 16 15 12 9 7 6 6 6 4 1 0 0 0 0 0 0 0 2 3
2953.9292 6 9 12 15 16 15 12 7 2 0 0 0 0 0 0 0 0 1 0 0 0 0 0 0 0 0 3 8 13 16
2968.3928 17 16 18 22 30 41 52 64 77 93 114 141 171 202 232 261 292 326 368
2977.5530 417 475 540 609 681 757 834 912 989 1064 1135 1203 1272 1344 1421
2984.7847 1502 1586 1669 1753 1840 1934 2041 2164 2304 2458 2622 2794 2969
2991.0522 3143 3313 3474 3624 3763 3896 4025 4158 4299 4450 4608 4769 4927
2997.3198 5073 5205 5320 5420 5512 5599 5684 5769 5850 5926 5992 6045 6083
3003.5872 6107 6122 6137 6165 6218 6306 6433 6595 6782 6985 7191 7392 7582
3009.8547 7756 7911 8044 8156 8248 8323 8386 8439 8487 8535 8589 8654 8735
3016.1223 8832 8942 9058 9174 9282 9378 9462 9533 9593 9647 9695 9740 9786
3022.3899 9833 9881 9930 9978 10023 10065 10105 10145 10187 10233 10282 10333
3028.1753 10386 10438 10491 10544 10598 10651 10702 10750 10792 10830 10865
3033.4785 10898 10932 10965 10996 11023 11045 11063 11079 11097 11118 11143
3038.7817 11171 11197 11220 11235 11244 11246 11244 11241 11239 11239 11240
3044.0850 11239 11233 11221 11202 11180 11157 11138 11126 11127 11143 11176
3049.3884 11226 11286 11351 11412 11467 11514 11556 11595 11632 11669 11706
3054.6917 11744 11783 11826 11870 11913 11953 11986 12012 12033 12050 12062
3059.9949 12072 12079 12085 12091 12098 12107 12114 12120 12121 12118 12110
3065.2981 12100 12086 12071 12053 12033 12009 11981 11950 11916 11879 11840
3070.6016 11797 11747 11689 11620 11541 11453 11362 11272 11193 11134 11105
3075.9048 11112 11158 11238 11344 11465 11590 11710 11818 11909 11981 12031
3081.2080 12064 12084 12096 12105 12114 12122 12129 12132 12131 12128 12122
3086.5112 12117 12115 12117 12127 12143 12166 12191 12214 12235 12252 12268
3091.8147 12286 12305 12326 12347 12366 12384 12401 12418 12435 12454 12474
3097.1179 12495 12519 12547 12578 12610 12640 12667 12689 12708 12722 12732
3102.4211 12738 12739 12737 12732 12729 12729 12733 12741 12749 12757 12761
3107.7244 12763 12761 12757 12752 12744 12735 12725 12714 12704 12696 12690
3113.0278 12686 12684 12681 12676 12668 12658 12647 12635 12625 12615 12605
3118.3311 12594 12580 12564 12547 12531 12515 12500 12485 12467 12448 12429
3123.6343 12409 12391 12373 12357 12343 12330 12322 12317 12315 12313 12311
3128.9375 12305 12295 12282 12268 12253 12238 12223 12207 12188 12165 12138
3134.2410 12109 12078 12048 12020 11994 11971 11949 11926 11902 11875 11846
3139.5442 11815 11781 11743 11703 11659 11612 11567 11525 11490 11464 11445
3144.8474 11431 11421 11412 11406 11402 11401 11403 11405 11406 11404 11398
3150.1506 11387 11371 11348 11319 11284 11247 11208 11171 11135 11101 11066
3155.4541 11028 10987 10945 10903 10863 10825 10789 10750 10708 10662 10612
3160.7573 10563 10516 10473 10434 10396 10359 10320 10280 10238 10193 10145
3166.0605 10097 10047 9998 9948 9898 9845 9790 9733 9674 9615 9557 9498 9438
3172.3281 9377 9313 9248 9182 9116 9051 8986 8922 8858 8795 8733 8670 8607
3178.5957 8540 8467 8388 8303 8215 8127 8041 7957 7874 7791 7706 7618 7528
3184.8630 7435 7341 7246 7150 7052 6953 6852 6750 6648 6546 6446 6347 6248
3191.1306 6146 6040 5930 5818 5705 5597 5495 5397 5303 5209 5116 5024 4938
3197.3982 4861 4794 4737 4687 4642 4600 4559 4522 4491 4467 4450 4441 4439
3203.6658 4442 4450 4464 4484 4510 4543 4582 4628 4681 4741 4808 4882 4961
3209.9331 5048 5143 5247 5363 5490 5629 5778 5938 6108 6285 6470 6661 6859
3216.2007 7063 7275 7494 7719 7949 8183 8417 8649 8879 9108 9334 9560 9784
3222.4683 10003 10216 10421 10616 10801 10975 11137 11287 11426 11554 11673
3227.7715 11785 11891 11990 12083 12170 12249 12321 12387 12448 12506 12560
3233.0747 12610 12653 12687 12713 12731 12745 12755 12762 12763 12760 12753
3238.3782 12745 12735 12724 12710 12693 12671 12644 12613 12580 12546 12511
3243.6814 12478 12444 12409 12373 12335 12295 12255 12215 12177 12144 12115
3248.9846 12091 12071 12055 12040 12028 12019 12016 12021 12034 12055 12082
3254.2878 12113 12143 12170 12195 12216 12234 12251 12266 12278 12286 12289
3259.5913 12287 12280 12269 12255 12238 12216 12189 12156 12119 12081 12041
3264.8945 12001 11958 11912 11862 11809 11755 11702 11650 11598 11546 11493
3270.1978 11438 11381 11322 11261 11197 11131 11063 10994 10926 10858 10792
3275.5010 10725 10657 10587 10513 10437 10361 10285 10212 10143 10076 10011
3280.8044 9946 9881 9815 9747 9675 9601 9525 9446 9366 9288 9212 9138 9067
3287.0718 8997 8924 8849 8770 8688 8605 8523 8441 8359 8276 8193 8111 8031
3293.3394 7953 7877 7803 7731 7659 7587 7513 7436 7355 7270 7183 7095 7007
3299.6069 6918 6829 6738 6644 6549 6453 6359 6268 6181 6099 6020 5946 5874
3305.8745 5806 5741 5681 5623 5567 5511 5458 5409 5367 5333 5307 5288 5276
3312.1418 5270 5272 5283 5302 5327 5357 5391 5430 5477 5531 5592 5655 5720
3318.4094 5783 5845 5907 5971 6037 6101 6163 6220 6272 6321 6369 6417 6468
3324.6770 6519 6567 6610 6646 6676 6697 6712 6719 6718 6711 6700 6685 6670
3330.9446 6654 6637 6618 6597 6575 6550 6523 6493 6460 6426 6392 6360 6332
3337.2119 6308 6285 6258 6226 6185 6139 6089 6043 6004 5974 5953 5938 5924
3343.4795 5911 5896 5881 5864 5846 5828 5812 5800 5795 5799 5813 5836 5864
3349.7471 5897 5930 5964 5998 6032 6069 6109 6154 6206 6266 6335 6415 6502
3356.0146 6597 6696 6798 6904 7014 7127 7243 7364 7490 7623 7764 7911 8062
3362.2820 8213 8362 8510 8659 8810 8963 9116 9266 9412 9556 9701 9849 10000
3368.5496 10154 10310 10469 10634 10807 10990 11184 11385 11591 11800 12007
3373.8528 12211 12407 12594 12772 12944 13112 13282 13455 13630 13802 13965
3379.1563 14118 14259 14390 14517 14643 14770 14900 15028 15153 15273 15387
3384.4595 15496 15602 15704 15806 15908 16011 16115 16219 16319 16413 16500
3389.7627 16578 16649 16714 16776 16836 16896 16957 17019 17082 17144 17207
3395.0659 17272 17340 17410 17479 17543 17598 17641 17674 17701 17724 17746
3400.3694 17767 17789 17812 17839 17872 17914 17961 18011 18059 18103 18142
3405.6726 18175 18205 18230 18248 18261 18270 18279 18292 18312 18338 18365
3410.9758 18389 18407 18419 18429 18438 18450 18463 18476 18488 18501 18515
3416.2791 18533 18555 18579 18604 18624 18640 18648 18651 18651 18649 18649
3421.5825 18652 18658 18665 18671 18675 18678 18682 18687 18693 18699 18700
3426.8857 18695 18686 18674 18666 18663 18667 18674 18681 18683 18680 18673
3432.1890 18664 18658 18655 18658 18663 18672 18684 18698 18714 18729 18740
3437.4922 18745 18743 18736 18725 18714 18706 18702 18702 18707 18715 18723
3442.7957 18728 18727 18723 18718 18717 18725 18741 18761 18778 18786 18786
3448.0989 18780 18772 18765 18760 18758 18756 18754 18752 18750 18749 18749
3453.4021 18749 18748 18746 18743 18737 18728 18717 18707 18700 18701 18711
3458.7053 18729 18751 18773 18789 18795 18792 18780 18759 18733 18707 18683
3464.0088 18666 18657 18654 18654 18655 18656 18657 18660 18668 18680 18694
3469.3120 18706 18713 18714 18709 18700 18690 18681 18677 18676 18679 18684
3474.6152 18688 18688 18684 18676 18666 18659 18661 18673 18695 18723 18751
3479.9185 18772 18783 18783 18776 18763 18749 18736 18724 18717 18717 18727
3485.2219 18745 18769 18795 18817 18834 18843 18845 18843 18838 18832 18824
3490.5251 18815 18807 18800 18799 18806 18819 18835 18847 18852 18848 18840
3495.8284 18834 18835 18846 18861 18874 18878 18869 18849 18826 18809 18809
3501.1316 18826 18859 18897 18929 18947 18949 18941 18931 18925 18926 18932
3506.4351 18939 18947 18952 18956 18958 18957 18953 18944 18932 18920 18911
3511.7383 18912 18925 18948 18978 19005 19026 19038 19041 19040 19039 19037
3517.0415 19035 19033 19028 19021 19012 19002 18994 18988 18987 18993 19008
3522.3447 19029 19053 19073 19086 19091 19091 19091 19094 19103 19114 19126
3527.6482 19134 19136 19133 19125 19115 19105 19096 19092 19091 19091 19090
3532.9514 19084 19077 19073 19079 19097 19124 19153 19173 19178 19169 19152
3538.2546 19132 19111 19092 19073 19058 19049 19047 19054 19066 19082 19100
3543.5579 19118 19137 19158 19176 19190 19196 19191 19179 19161 19141 19124
3548.8613 19112 19109 19115 19129 19150 19171 19188 19196 19198 19194 19188
3554.1646 19183 19180 19180 19184 19190 19196 19198 19195 19187 19179 19178
3559.4678 19186 19203 19225 19246 19262 19273 19280 19286 19291 19296 19297
3564.7710 19294 19285 19269 19247 19224 19207 19202 19210 19226 19244 19258
3570.0745 19264 19263 19259 19257 19261 19272 19287 19302 19311 19312 19308
3575.3777 19301 19294 19288 19281 19272 19261 19246 19231 19217 19208 19205
3580.6809 19206 19209 19213 19214 19214 19215 19220 19233 19255 19284 19314
3585.9841 19340 19353 19352 19339 19322 19306 19293 19283 19278 19280 19290
3591.2876 19308 19331 19351 19362 19358 19343 19322 19300 19282 19267 19255
3596.5908 19246 19244 19253 19271 19294 19314 19322 19314 19291 19262 19233
3601.8940 19210 19194 19186 19184 19187 19195 19207 19220 19230 19235 19230
3607.1973 19218 19202 19187 19176 19174 19178 19188 19202 19219 19237 19252
3612.5007 19262 19264 19258 19248 19239 19233 19234 19242 19257 19274 19285
3617.8040 19285 19270 19246 19224 19213 19210 19212 19212 19211 19211 19215
3623.1072 19223 19234 19245 19252 19255 19254 19253 19253 19257 19267 19287
3628.4104 19318 19346 19355 19343 19320 19295 19274 19262 19258 19261 19266
3633.7139 19266 19261 19253 19247 19245 19248 19253 19257 19256 19251 19242
3639.0171 19232 19226 19224 19225 19226 19224 19218 19209 19203 19202 19209
3644.3203 19224 19244 19268 19292 19312 19321 19316 19301 19289 19294 19325
3649.6235 19375 19424 19447 19439 19413 19383 19358 19339 19325 19312 19299
3654.9270 19285 19271 19259 19249 19239 19230 19223 19222 19228 19241 19257
3660.2302 19271 19276 19271 19257 19242 19229 19222 19225 19234 19247 19262
3665.5334 19277 19291 19306 19321 19335 19349 19362 19377 19392 19403 19402
3670.8367 19386 19361 19337 19321 19319 19335 19373 19438 19515 19561 19545
3676.1401 19489 19430 19381 19342 19314 19295 19283 19275 19263 19244 19219
3681.4434 19189 19160 19136 19119 19109 19105 19099 19087 19067 19041 19019
3686.7466 19011 19036 19100 19188 19266 19312 19329 19328 19318 19300 19275
3692.0498 19245 19215 19189 19174 19172 19182 19199 19216 19229 19236 19236
3697.3533 19232 19226 19219 19213 19210 19211 19219 19233 19246 19251 19243
3702.6565 19226 19207 19192 19185 19184 19188 19192 19195 19198 19204 19215
3707.9597 19232 19251 19266 19273 19272 19269 19270 19275 19282 19281 19267
3713.2629 19243 19213 19179 19146 19116 19095 19086 19090 19104 19122 19138
3718.5664 19143 19137 19128 19122 19125 19140 19159 19173 19174 19161 19143
3723.8696 19126 19114 19109 19110 19112 19114 19113 19109 19104 19100 19098
3729.1729 19098 19102 19113 19133 19158 19181 19188 19176 19150 19123 19104
3734.4761 19096 19096 19090 19074 19052 19033 19022 19019 19019 19020 19022
3739.7795 19025 19032 19038 19042 19039 19031 19025 19025 19038 19057 19062
3745.0828 19046 19023 19006 18997 18997 19008 19031 19063 19095 19113 19112
3750.3860 19095 19065 19024 18977 18930 18894 18871 18859 18859 18868 18883
3755.6892 18897 18899 18888 18868 18850 18839 18838 18838 18829 18804 18769
3760.9927 18734 18706 18687 18677 18674 18676 18682 18692 18704 18714 18717
3766.2959 18711 18700 18692 18692 18703 18724 18748 18759 18749 18721 18687
3771.5991 18654 18627 18607 18594 18586 18581 18579 18576 18572 18566 18561
3776.9023 18560 18565 18578 18599 18617 18621 18604 18574 18540 18514 18500
3782.2058 18501 18514 18533 18552 18562 18558 18544 18523 18502 18484 18469
3787.5090 18459 18452 18450 18454 18462 18471 18475 18473 18462 18446 18429
3792.8123 18415 18407 18406 18412 18424 18444 18470 18493 18507 18507 18500
3798.1155 18491 18488 18497 18521 18559 18605 18637 18635 18601 18554 18509
3803.4189 18471 18441 18419 18409 18414 18436 18467 18487 18481 18452 18415
3808.7222 18382 18356 18340 18329 18322 18315 18308 18302 18299 18298 18302
3814.0254 18310 18327 18352 18381 18399 18397 18381 18363 18351 18349 18359
3819.3286 18380 18409 18433 18433 18407 18370 18338 18314 18299 18290 18287
3824.6321 18288 18296 18306 18313 18309 18290 18261 18230 18206 18194 18197
3829.9353 18212 18232 18246 18244 18224 18195 18169 18154 18155 18173 18204
3835.2385 18239 18273 18306 18339 18368 18382 18372 18341 18301 18262 18231
3840.5417 18207 18188 18172 18156 18140 18125 18110 18093 18076 18060 18048
3845.8452 18042 18045 18053 18063 18070 18075 18077 18083 18095 18117 18145
3851.1484 18175 18204 18228 18249 18262 18256 18225 18181 18138 18103 18082
3856.4517 18074 18073 18072 18065 18048 18028 18010 17999 18001 18013 18032
3861.7551 18050 18060 18063 18059 18047 18024 17991 17953 17919 17894 17880
3867.0583 17875 17880 17896 17923 17956 17980 17981 17961 17936 17914 17902
3872.3616 17900 17908 17919 17924 17914 17892 17865 17842 17827 17820 17821
3877.6648 17827 17835 17846 17858 17870 17877 17876 17867 17853 17837 17821
3882.9683 17808 17803 17808 17826 17850 17870 17873 17861 17841 17823 17809
3888.2715 17800 17793 17786 17780 17777 17781 17791 17801 17803 17797 17784
3893.5747 17767 17751 17738 17731 17729 17733 17739 17747 17755 17762 17768
3898.8779 17773 17779 17788 17800 17814 17827 17834 17833 17828 17824 17824
3904.1814 17828 17829 17821 17803 17778 17751 17726 17708 17696 17691 17688
3909.4846 17685 17681 17674 17664 17656 17651 17650 17654 17659 17663 17665
3914.7878 17665 17666 17671 17679 17689 17698 17705 17709 17711 17711 17708
3920.0911 17701 17692 17684 17683 17691 17709 17735 17761 17781 17787 17779
3925.3945 17761 17740 17722 17711 17706 17707 17708 17708 17703 17694 17685
3930.6978 17679 17678 17684 17690 17695 17695 17692 17689 17688 17688 17688
3936.0010 17685 17677 17665 17653 17643 17638 17640 17646 17655 17663 17667
3941.3042 17668 17665 17659 17653 17648 17644 17641 17637 17633 17630 17628
3946.6077 17629 17633 17638 17642 17642 17636 17623 17604 17584 17567 17555
3951.9109 17550 17548 17546 17541 17533 17525 17518 17517 17522 17530 17538
3957.2141 17541 17539 17530 17518 17508 17504 17507 17515 17526 17533 17534
3962.5173 17529 17520 17509 17498 17489 17480 17471 17461 17453 17448 17449
3967.8208 17457 17469 17480 17486 17485 17478 17467 17455 17443 17432 17422
3973.1240 17413 17406 17400 17396 17394 17394 17396 17399 17402 17402 17397
3978.4272 17386 17370 17349 17327 17305 17287 17276 17273 17277 17286 17296
3983.7305 17302 17304 17298 17287 17272 17254 17237 17223 17214 17210 17210
3989.0339 17211 17211 17206 17194 17179 17161 17145 17133 17126 17122 17120
3994.3372 17122 17126 17131 17136 17139 17136 17129 17118 17105 17090 17074
3999.6404 17059 17046
##END= 
