##TITLE= INCMANNITOLO
##JCAMP-DX= 4.24
##DATA TYPE= INFRARED SPECTRUM
##ORIGIN= JASCO
##OWNER= 
##DATE= 22/04/12
##TIME= 17:53:29
##SPECTROMETER/DATA SYSTEM= 
##RESOLUTION= 
##DELTAX=   0.48211674
##XUNITS= 1/CM
##YUNITS= TRANSMITTANCE
##XFACTOR= 1.00000
##YFACTOR= 0.0001
##FIRSTX=   599.7532
##LASTX=  4000.1226
##NPOINTS=     7054
##FIRSTY=      0.65996
##MAXY=      1.18007
##MINY=      0.57286
##XYDATA= (X++(Y..Y))
599.7532 6600 6627 6644 6653 6663 6688 6742 6832 6949 7072 7176 7238 7253 7231
606.5029 7189 7147 7120 7113 7125 7145 7160 7159 7139 7106 7074 7051 7041 7037
613.2525 7029 7006 6966 6913 6858 6813 6787 6785 6803 6834 6864 6881 6877 6853
620.0021 6815 6773 6738 6719 6721 6746 6791 6851 6920 6988 7046 7090 7125 7160
626.7518 7208 7274 7354 7437 7509 7564 7606 7647 7694 7750 7804 7847 7875 7895
633.5014 7917 7948 7985 8024 8058 8091 8132 8189 8259 8325 8367 8365 8318 8244
640.2510 8169 8117 8102 8122 8165 8216 8266 8313 8358 8406 8456 8502 8534 8546
647.0007 8535 8507 8467 8420 8369 8320 8279 8253 8248 8261 8281 8295 8293 8277
653.7503 8257 8247 8252 8268 8284 8289 8279 8261 8242 8233 8235 8245 8260 8276
660.4999 8295 8318 8349 8383 8413 8429 8426 8411 8398 8407 8448 8528 8646 8802
667.2496 8976 9073 8918 8578 8327 8217 8184 8181 8181 8165 8128 8083 8051 8054
673.9992 8096 8154 8194 8182 8110 7997 7880 7791 7745 7736 7745 7752 7739 7701
680.7488 7642 7572 7502 7439 7380 7320 7255 7195 7159 7165 7216 7301 7394 7476
687.4985 7542 7607 7694 7816 7967 8130 8282 8412 8518 8605 8679 8735 8765 8757
694.2481 8710 8637 8560 8501 8474 8480 8504 8528 8538 8533 8522 8518 8526 8541
700.9977 8547 8523 8461 8372 8282 8223 8216 8259 8330 8397 8434 8430 8391 8335
707.7474 8278 8232 8198 8170 8140 8105 8068 8039 8028 8036 8058 8078 8082 8062
714.4970 8024 7975 7926 7882 7843 7810 7784 7767 7760 7754 7743 7717 7679 7635
721.2466 7597 7569 7547 7525 7495 7454 7409 7368 7341 7332 7337 7347 7354 7354
727.9963 7347 7339 7334 7333 7330 7319 7295 7257 7211 7163 7122 7089 7066 7047
734.7459 7028 7004 6974 6940 6903 6869 6838 6812 6789 6767 6744 6721 6698 6674
741.4955 6654 6637 6622 6603 6572 6520 6443 6345 6237 6132 6039 5961 5895 5841
748.2452 5799 5774 5775 5804 5861 5942 6041 6157 6289 6436 6597 6762 6922 7066
754.9948 7189 7292 7375 7440 7488 7517 7533 7542 7553 7572 7595 7614 7621 7610
761.7444 7584 7549 7511 7471 7428 7382 7332 7280 7230 7183 7140 7104 7075 7054
768.4941 7041 7033 7023 7008 6986 6956 6922 6887 6855 6827 6804 6786 6772 6758
775.2437 6745 6729 6712 6694 6675 6656 6636 6615 6593 6570 6547 6526 6510 6499
781.9933 6492 6486 6481 6476 6471 6464 6455 6440 6417 6386 6349 6308 6267 6226
788.7430 6186 6148 6114 6082 6054 6028 6005 5983 5965 5950 5939 5933 5932 5935
795.4926 5946 5966 5995 6029 6063 6091 6110 6124 6140 6164 6201 6249 6300 6347
802.2422 6384 6412 6432 6449 6466 6485 6506 6530 6554 6576 6597 6618 6642 6673
808.9919 6711 6755 6798 6838 6875 6911 6949 6992 7036 7078 7113 7143 7171 7200
815.7415 7232 7266 7298 7327 7353 7379 7406 7435 7464 7489 7507 7519 7529 7543
822.4911 7565 7597 7638 7684 7729 7771 7807 7835 7855 7869 7879 7889 7901 7918
829.2408 7942 7971 8005 8038 8070 8098 8121 8138 8150 8157 8160 8160 8156 8150
835.9904 8146 8145 8152 8168 8190 8211 8226 8234 8241 8257 8287 8331 8379 8422
842.7401 8452 8473 8491 8512 8531 8537 8519 8472 8405 8332 8267 8216 8176 8141
849.4897 8106 8069 8035 8012 8003 8007 8016 8022 8020 8009 7990 7967 7942 7914
856.2393 7883 7850 7817 7785 7755 7725 7693 7656 7614 7567 7513 7451 7377 7291
862.9890 7190 7075 6949 6813 6671 6525 6379 6236 6102 5980 5878 5799 5748 5729
869.7386 5741 5785 5861 5970 6111 6280 6473 6682 6901 7122 7340 7550 7750 7940
876.4882 8121 8299 8476 8655 8831 8988 9106 9166 9160 9099 9002 8894 8790 8698
883.2379 8621 8560 8518 8495 8489 8497 8513 8532 8554 8582 8621 8671 8730 8793
889.9875 8854 8910 8958 8996 9023 9039 9043 9036 9021 9001 8982 8968 8963 8968
896.7371 8984 9009 9043 9085 9130 9172 9200 9203 9176 9116 9031 8929 8821 8716
903.4868 8619 8532 8456 8388 8329 8279 8239 8210 8190 8176 8164 8152 8140 8130
910.2364 8124 8125 8134 8149 8168 8188 8206 8223 8235 8244 8247 8244 8233 8215
916.9860 8188 8153 8113 8069 8025 7985 7951 7922 7899 7880 7863 7848 7831 7810
923.7357 7781 7745 7708 7676 7659 7661 7679 7709 7744 7782 7823 7870 7924 7980
930.4853 8035 8083 8122 8154 8182 8210 8238 8267 8293 8313 8325 8326 8319 8306
937.2349 8293 8284 8279 8276 8273 8266 8255 8242 8229 8215 8200 8180 8154 8123
943.9846 8091 8060 8032 8009 7990 7974 7961 7951 7943 7934 7919 7892 7850 7791
950.7342 7717 7634 7550 7470 7398 7333 7272 7214 7156 7100 7045 6992 6940 6890
957.4838 6842 6798 6760 6732 6717 6717 6734 6767 6815 6877 6951 7034 7124 7217
964.2335 7306 7388 7456 7511 7553 7582 7598 7598 7579 7544 7499 7452 7410 7376
970.9831 7350 7331 7322 7324 7341 7371 7412 7458 7503 7543 7578 7607 7632 7652
977.7327 7669 7683 7694 7704 7712 7720 7730 7741 7753 7764 7770 7765 7744 7702
984.4824 7635 7545 7435 7313 7187 7064 6949 6848 6763 6699 6659 6647 6665 6711
991.2320 6781 6869 6967 7070 7171 7262 7340 7399 7439 7462 7470 7466 7454 7436
997.9816 7411 7383 7353 7322 7292 7264 7236 7209 7182 7157 7135 7116 7102 7091
1004.7313 7080 7067 7049 7026 6998 6968 6939 6912 6886 6862 6842 6826 6817
1010.9988 6813 6812 6810 6806 6799 6792 6788 6787 6788 6788 6785 6779 6775
1017.2663 6775 6786 6807 6839 6877 6919 6962 7009 7063 7130 7214 7316 7434
1023.5338 7564 7700 7835 7966 8091 8208 8319 8423 8521 8612 8691 8755 8798
1029.8014 8819 8818 8801 8777 8754 8739 8734 8740 8756 8781 8816 8865 8928
1036.0688 9009 9105 9213 9327 9441 9548 9644 9728 9800 9864 9921 9974 10024
1042.3364 10073 10127 10187 10256 10329 10401 10461 10497 10504 10480 10432
1047.6396 10369 10302 10239 10184 10137 10099 10070 10050 10033 10011 9975
1052.9430 9915 9831 9727 9613 9501 9399 9310 9237 9179 9135 9104 9080 9057
1059.2104 9031 9000 8964 8929 8895 8864 8837 8813 8795 8784 8784 8791 8801
1065.4780 8806 8800 8779 8746 8707 8669 8638 8616 8600 8588 8578 8569 8567
1071.7455 8572 8586 8604 8617 8616 8593 8549 8488 8422 8364 8321 8296 8284
1078.0131 8275 8260 8234 8199 8159 8121 8090 8067 8048 8032 8013 7988 7958
1084.2805 7923 7884 7841 7792 7738 7681 7625 7575 7537 7512 7508 7535 7604
1090.5481 7720 7871 8031 8173 8288 8392 8515 8671 8844 8986 9051 9027 8954
1096.8156 8892 8886 8942 9031 9110 9150 9153 9139 9131 9139 9155 9169 9175
1103.0831 9175 9175 9180 9193 9211 9232 9253 9273 9289 9303 9316 9333 9356
1109.3506 9383 9412 9440 9467 9499 9539 9587 9639 9686 9716 9720 9693 9636
1115.6182 9556 9462 9362 9265 9175 9096 9027 8967 8913 8863 8814 8765 8718
1121.8856 8676 8641 8617 8606 8608 8625 8655 8695 8743 8793 8843 8890 8933
1128.1532 8973 9010 9043 9072 9100 9126 9150 9171 9184 9183 9160 9110 9033
1134.4207 8936 8829 8726 8638 8570 8520 8482 8446 8404 8355 8302 8253 8212
1140.6882 8184 8168 8158 8150 8142 8132 8123 8118 8121 8132 8148 8166 8181
1146.9557 8191 8192 8189 8181 8172 8162 8152 8145 8140 8141 8148 8157 8167
1153.2233 8174 8176 8174 8171 8174 8184 8204 8232 8266 8300 8332 8361 8387
1159.4907 8409 8426 8436 8436 8423 8396 8359 8316 8275 8239 8214 8197 8188
1165.7583 8184 8179 8173 8165 8153 8139 8122 8103 8081 8058 8035 8012 7992
1172.0258 7977 7967 7961 7958 7955 7951 7943 7934 7926 7922 7922 7927 7931
1178.2933 7931 7924 7908 7889 7869 7852 7839 7828 7818 7808 7798 7793 7793
1184.5608 7800 7812 7826 7839 7849 7856 7862 7867 7872 7876 7877 7874 7866
1190.8284 7854 7839 7823 7805 7785 7760 7730 7694 7654 7612 7569 7529 7491
1197.0958 7457 7425 7393 7363 7333 7305 7278 7252 7228 7203 7179 7154 7127
1203.3634 7099 7071 7041 7012 6983 6954 6926 6896 6865 6833 6802 6772 6745
1209.6309 6720 6697 6676 6655 6634 6615 6598 6586 6580 6581 6593 6618 6659
1215.8984 6719 6802 6910 7043 7201 7381 7577 7781 7988 8192 8392 8586 8772
1222.1659 8947 9109 9256 9391 9517 9641 9763 9883 9996 10099 10189 10265 10326
1228.4335 10368 10389 10385 10354 10295 10209 10102 9980 9849 9716 9585 9461
1234.2189 9343 9234 9131 9036 8945 8858 8773 8690 8608 8529 8453 8381 8312
1240.4863 8248 8188 8133 8081 8032 7987 7943 7903 7865 7830 7795 7759 7720
1246.7539 7679 7637 7595 7555 7518 7483 7451 7422 7394 7368 7343 7319 7296
1253.0214 7274 7252 7232 7214 7197 7183 7170 7159 7148 7139 7133 7129 7129
1259.2889 7131 7133 7134 7136 7141 7149 7162 7177 7190 7199 7205 7207 7210
1265.5564 7213 7214 7210 7196 7171 7136 7091 7041 6985 6924 6861 6798 6741
1271.8240 6693 6659 6638 6629 6627 6627 6627 6623 6617 6610 6606 6608 6617
1278.0914 6635 6662 6697 6738 6786 6841 6901 6967 7037 7109 7184 7259 7334
1284.3590 7408 7482 7555 7626 7697 7767 7836 7904 7972 8037 8102 8165 8226
1290.6265 8287 8344 8399 8448 8490 8525 8552 8572 8585 8592 8595 8596 8595
1296.8940 8594 8591 8587 8583 8579 8578 8581 8591 8606 8626 8651 8678 8706
1303.1615 8733 8756 8773 8782 8786 8787 8788 8791 8795 8797 8797 8795 8792
1309.4291 8790 8792 8797 8804 8811 8819 8825 8832 8841 8850 8860 8871 8883
1315.6965 8896 8913 8934 8958 8985 9010 9028 9034 9025 9005 8976 8944 8914
1321.9641 8887 8867 8852 8841 8832 8823 8815 8807 8798 8788 8775 8755 8729
1328.2316 8696 8659 8623 8591 8567 8551 8542 8539 8543 8552 8568 8590 8616
1334.4991 8646 8680 8716 8754 8793 8830 8864 8896 8926 8955 8984 9011 9036
1340.7666 9058 9077 9095 9111 9125 9136 9142 9142 9134 9119 9098 9076 9058
1347.0342 9047 9045 9050 9060 9072 9085 9099 9115 9135 9158 9181 9204 9226
1353.3016 9245 9261 9276 9288 9297 9304 9306 9305 9298 9286 9269 9251 9234
1359.5692 9220 9209 9200 9192 9186 9182 9181 9183 9187 9188 9187 9182 9175
1365.8367 9167 9161 9157 9158 9165 9178 9193 9206 9212 9208 9193 9170 9144
1372.1042 9120 9103 9095 9091 9082 9056 9008 8938 8854 8760 8659 8555 8454
1378.3717 8362 8284 8222 8173 8133 8099 8070 8045 8027 8017 8015 8017 8023
1384.6393 8029 8032 8032 8029 8026 8023 8020 8015 8005 7991 7974 7957 7945
1390.9067 7940 7942 7948 7954 7957 7959 7959 7962 7967 7975 7982 7988 7991
1397.1743 7995 8000 8007 8018 8031 8044 8057 8071 8088 8109 8134 8161 8191
1403.4418 8222 8254 8289 8321 8345 8356 8352 8334 8304 8262 8210 8153 8094
1409.7094 8038 7989 7947 7912 7884 7862 7844 7831 7823 7818 7819 7827 7843
1415.9768 7867 7896 7926 7955 7987 8027 8085 8154 8217 8262 8291 8312 8330
1422.2444 8347 8368 8390 8413 8434 8451 8468 8489 8518 8555 8599 8648 8699
1428.5118 8752 8811 8873 8935 8989 9032 9065 9092 9114 9126 9128 9118 9101
1434.7794 9082 9066 9053 9043 9030 9012 8991 8971 8954 8939 8926 8915 8905
1441.0469 8893 8880 8865 8848 8827 8800 8765 8721 8670 8616 8564 8515 8471
1447.3145 8433 8401 8375 8354 8337 8323 8314 8310 8315 8330 8355 8385 8415
1453.5819 8443 8467 8487 8502 8513 8517 8512 8495 8463 8422 8381 8344 8316
1459.8495 8298 8291 8294 8307 8326 8347 8370 8392 8415 8439 8461 8476 8481
1466.1169 8477 8469 8458 8444 8427 8409 8388 8367 8345 8321 8296 8266 8227
1472.3845 8178 8124 8074 8031 7992 7953 7910 7864 7817 7773 7735 7700 7668
1478.6520 7636 7605 7578 7555 7537 7524 7514 7509 7510 7518 7533 7555 7584
1484.9196 7617 7655 7701 7756 7819 7882 7939 7985 8027 8074 8132 8196 8251
1491.1870 8288 8313 8331 8348 8363 8377 8389 8399 8409 8421 8433 8444 8451
1497.4546 8454 8455 8455 8456 8457 8458 8459 8461 8465 8470 8474 8477 8478
1503.7220 8476 8473 8469 8467 8469 8479 8492 8498 8493 8484 8475 8466 8459
1509.9896 8453 8446 8438 8428 8416 8404 8394 8385 8377 8367 8353 8335 8312
1516.2571 8290 8275 8269 8267 8264 8257 8247 8235 8222 8208 8190 8165 8137
1522.5247 8113 8092 8074 8057 8039 8021 8004 7990 7980 7972 7962 7949 7932
1528.7921 7913 7894 7876 7858 7841 7823 7805 7788 7771 7755 7739 7724 7710
1535.0597 7697 7686 7675 7665 7656 7650 7646 7643 7638 7625 7606 7589 7579
1541.3271 7576 7577 7583 7590 7599 7610 7627 7654 7692 7737 7782 7826 7869
1547.5947 7913 7961 8018 8090 8180 8283 8383 8468 8535 8589 8638 8692 8759
1553.8622 8844 8933 9002 9044 9066 9078 9087 9100 9124 9175 9261 9334 9366
1560.1298 9386 9405 9423 9440 9453 9463 9470 9475 9481 9491 9504 9517 9529
1566.3972 9537 9540 9540 9539 9538 9541 9548 9559 9569 9577 9583 9590 9599
1572.6648 9607 9615 9620 9622 9621 9620 9623 9636 9656 9674 9687 9695 9701
1578.9323 9707 9713 9721 9731 9741 9751 9759 9763 9765 9766 9767 9772 9781
1585.1998 9794 9809 9822 9832 9839 9842 9844 9844 9844 9842 9839 9836 9835
1591.4674 9839 9849 9865 9883 9902 9918 9930 9939 9948 9958 9971 9986 10003
1597.7349 10020 10036 10051 10065 10079 10097 10119 10148 10181 10217 10251
1603.0382 10281 10306 10330 10357 10390 10431 10476 10521 10561 10593 10618
1608.3414 10640 10665 10698 10738 10784 10834 10884 10934 10982 11021 11046
1613.6448 11054 11047 11029 11007 10990 10987 11000 11014 11018 11014 11015
1618.9480 11028 11059 11106 11162 11214 11254 11281 11295 11301 11303 11303
1624.2513 11300 11297 11294 11298 11315 11357 11433 11538 11647 11732 11782
1629.5546 11801 11792 11758 11698 11616 11520 11421 11326 11235 11147 11055
1634.8579 10957 10866 10805 10784 10791 10814 10840 10856 10854 10835 10815
1640.1611 10813 10840 10885 10909 10870 10757 10594 10429 10301 10228 10212
1645.4645 10232 10249 10228 10177 10133 10112 10103 10089 10064 10030 9991
1650.7677 9950 9904 9850 9783 9710 9680 9701 9718 9720 9714 9706 9698 9691
1657.0353 9683 9672 9657 9639 9620 9604 9591 9583 9577 9571 9558 9535 9505
1663.3027 9478 9462 9457 9460 9468 9477 9483 9484 9480 9468 9451 9428 9406
1669.5703 9388 9376 9367 9361 9356 9352 9351 9353 9358 9369 9387 9407 9418
1675.8378 9412 9394 9374 9355 9338 9325 9315 9311 9314 9323 9333 9339 9338
1682.1053 9328 9310 9290 9281 9304 9344 9360 9355 9341 9327 9317 9312 9313
1688.3728 9318 9327 9335 9340 9343 9345 9347 9351 9358 9368 9380 9392 9406
1694.6404 9420 9438 9455 9467 9469 9466 9460 9453 9444 9438 9450 9509 9603
1700.9078 9663 9680 9679 9674 9673 9679 9692 9710 9731 9749 9761 9769 9774
1707.1754 9777 9779 9780 9779 9779 9781 9784 9790 9796 9802 9807 9813 9822
1713.4429 9838 9864 9898 9933 9960 9976 9986 10000 10033 10097 10174 10239
1719.2283 10282 10312 10331 10339 10331 10300 10240 10153 10048 9941 9842 9756
1725.0137 9680 9605 9530 9457 9392 9339 9301 9274 9253 9230 9203 9174 9150
1731.2813 9131 9119 9114 9122 9155 9222 9301 9351 9375 9391 9410 9435 9465
1737.5487 9498 9537 9590 9670 9779 9899 9999 10066 10107 10132 10150 10159
1743.3341 10157 10139 10106 10064 10018 9971 9926 9882 9837 9788 9732 9673
1749.1195 9614 9556 9497 9436 9378 9328 9293 9268 9248 9228 9208 9187 9168
1755.3871 9152 9142 9136 9134 9132 9130 9126 9120 9114 9108 9102 9097 9094
1761.6545 9093 9092 9089 9083 9076 9070 9064 9061 9059 9057 9055 9054 9056
1767.9221 9065 9077 9087 9092 9089 9081 9070 9061 9059 9065 9070 9070 9064
1774.1896 9056 9048 9042 9039 9038 9036 9033 9029 9024 9019 9016 9016 9019
1780.4572 9022 9025 9024 9021 9014 9006 8999 8994 8992 8994 8997 9000 9002
1786.7246 9002 9002 9002 9003 9003 9004 9005 9008 9012 9017 9022 9023 9017
1792.9922 9007 8994 8983 8973 8965 8957 8951 8946 8942 8941 8943 8949 8957
1799.2596 8967 8976 8980 8980 8976 8969 8962 8955 8948 8940 8932 8925 8921
1805.5272 8920 8923 8928 8931 8930 8926 8922 8919 8917 8915 8908 8894 8876
1811.7947 8861 8853 8852 8856 8859 8858 8854 8847 8841 8837 8833 8830 8824
1818.0623 8818 8810 8803 8795 8784 8769 8751 8733 8718 8706 8699 8697 8699
1824.3297 8706 8718 8732 8741 8742 8735 8723 8711 8702 8700 8709 8724 8740
1830.5973 8750 8754 8755 8757 8761 8768 8777 8786 8795 8802 8809 8818 8828
1836.8647 8840 8854 8869 8884 8899 8912 8921 8924 8921 8912 8901 8892 8886
1843.1323 8888 8899 8914 8930 8940 8947 8953 8959 8965 8970 8971 8970 8970
1849.3998 8973 8981 8988 8991 8985 8974 8963 8959 8965 8976 8986 8988 8982
1855.6674 8971 8961 8954 8951 8950 8950 8952 8956 8962 8968 8971 8967 8958
1861.9348 8945 8931 8920 8913 8912 8914 8921 8930 8942 8956 8971 8984 8995
1868.2024 9001 8999 8992 8981 8970 8961 8952 8943 8935 8930 8927 8929 8934
1874.4698 8940 8944 8944 8937 8925 8911 8899 8892 8891 8893 8895 8896 8893
1880.7374 8887 8877 8867 8857 8851 8851 8858 8871 8888 8903 8910 8909 8898
1887.0049 8882 8864 8846 8831 8818 8809 8804 8802 8800 8794 8784 8773 8767
1893.2725 8774 8798 8833 8864 8873 8855 8817 8778 8753 8746 8753 8762 8765
1899.5399 8763 8759 8762 8771 8786 8799 8806 8805 8796 8783 8771 8764 8767
1905.8075 8778 8795 8812 8824 8827 8824 8817 8811 8807 8806 8806 8805 8802
1912.0750 8796 8787 8775 8762 8751 8742 8737 8734 8730 8725 8719 8711 8703
1918.3425 8694 8684 8673 8663 8656 8654 8657 8664 8670 8670 8658 8635 8607
1924.6100 8581 8565 8564 8575 8592 8606 8612 8609 8605 8607 8618 8636 8654
1930.8776 8664 8664 8656 8643 8633 8630 8639 8661 8693 8722 8737 8730 8707
1937.1450 8684 8678 8696 8729 8759 8767 8752 8723 8701 8701 8730 8777 8821
1943.4126 8849 8857 8855 8849 8846 8846 8848 8849 8848 8844 8842 8845 8855
1949.6801 8873 8895 8919 8941 8960 8974 8982 8985 8988 8995 9009 9027 9040
1955.9476 9037 9014 8975 8931 8900 8892 8910 8947 8989 9023 9042 9043 9030
1962.2151 9011 8993 8980 8973 8968 8960 8943 8921 8901 8898 8926 8988 9077
1968.4827 9179 9277 9359 9417 9445 9443 9415 9373 9329 9292 9261 9235 9216
1974.7501 9206 9206 9206 9185 9126 9034 8946 8906 8938 9025 9118 9162 9136
1981.0177 9062 8985 8947 8959 9006 9060 9097 9110 9107 9096 9078 9053 9017
1987.2852 8978 8950 8945 8966 9007 9055 9095 9116 9109 9076 9025 8972 8931
1993.5527 8908 8905 8918 8942 8970 8992 9001 8992 8968 8938 8915 8909 8924
1999.8202 8952 8983 9003 9007 8999 8991 8995 9016 9049 9078 9086 9062 9009
2006.0878 8944 8890 8867 8886 8941 9020 9104 9179 9235 9266 9272 9253 9214
2012.3552 9162 9107 9059 9024 9006 9007 9031 9078 9143 9212 9263 9283 9280
2018.6228 9274 9287 9319 9348 9338 9270 9159 9058 9019 9064 9172 9278 9318
2024.8903 9261 9138 9013 8944 8955 9027 9119 9189 9216 9204 9172 9142 9122
2031.1578 9107 9084 9041 8978 8910 8860 8851 8891 8968 9057 9131 9173 9186
2037.4253 9184 9181 9181 9179 9171 9155 9138 9126 9120 9114 9104 9089 9074
2043.6929 9069 9077 9092 9107 9111 9104 9088 9071 9058 9052 9049 9048 9045
2049.9604 9039 9030 9024 9021 9022 9026 9028 9025 9017 9009 9001 8997 8995
2056.2278 8995 8996 8995 8990 8976 8953 8926 8906 8901 8910 8922 8921 8902
2062.4954 8874 8856 8867 8908 8961 9001 9013 9003 8991 8997 9024 9059 9083
2068.7629 9085 9065 9036 9010 8991 8978 8967 8956 8944 8933 8921 8910 8900
2075.0305 8896 8901 8915 8932 8942 8937 8918 8894 8878 8880 8901 8933 8966
2081.2979 8987 8994 8986 8969 8952 8939 8933 8937 8947 8960 8972 8976 8970
2087.5654 8954 8932 8909 8889 8874 8863 8855 8851 8854 8866 8892 8930 8978
2093.8330 9027 9071 9103 9120 9120 9105 9076 9038 8997 8960 8933 8920 8921
2100.1006 8934 8955 8977 8991 8990 8972 8942 8914 8900 8904 8920 8933 8930
2106.3679 8910 8883 8868 8876 8907 8950 8984 8996 8986 8963 8942 8936 8948
2112.6355 8975 9005 9027 9034 9027 9011 8996 8986 8983 8981 8972 8954 8929
2118.9031 8905 8892 8894 8910 8932 8951 8960 8956 8943 8926 8913 8910 8923
2125.1707 8949 8981 9010 9026 9025 9015 9006 9009 9027 9049 9061 9049 9010
2131.4380 8953 8900 8869 8872 8911 8975 9048 9112 9148 9146 9105 9035 8952
2137.7056 8878 8830 8820 8848 8905 8975 9043 9096 9133 9154 9161 9158 9147
2143.9731 9137 9134 9140 9143 9122 9063 8974 8890 8854 8892 9000 9132 9223
2150.2407 9223 9135 9008 8909 8883 8945 9075 9232 9361 9412 9354 9191 8956
2156.5081 8705 8494 8364 8338 8414 8571 8781 9023 9285 9551 9788 9949 9995
2162.7756 9916 9740 9515 9284 9072 8892 8752 8663 8637 8683 8802 8981 9191
2169.0432 9391 9538 9596 9556 9434 9264 9085 8926 8806 8730 8689 8670 8657
2175.3108 8647 8644 8659 8697 8756 8826 8898 8968 9041 9121 9205 9283 9335
2181.5781 9339 9278 9159 9021 8921 8902 8960 9031 9022 8902 8754 8734 8964
2187.8457 9454 10007 10226 9838 9056 8326 7920 7894 8162 8535 8773 8762 8599
2194.1133 8468 8486 8655 8895 9097 9197 9203 9157 9094 9021 8936 8843 8756
2200.3809 8689 8645 8625 8630 8665 8736 8840 8964 9083 9170 9211 9208 9183
2206.6482 9165 9178 9230 9304 9365 9370 9291 9134 8935 8746 8614 8565 8604
2212.9158 8710 8843 8959 9024 9030 8995 8948 8908 8880 8854 8813 8750 8670
2219.1833 8593 8541 8534 8575 8658 8766 8878 8976 9053 9104 9129 9126 9096
2225.4509 9040 8968 8900 8851 8833 8846 8878 8912 8933 8932 8913 8881 8848
2231.7183 8823 8810 8814 8833 8859 8882 8893 8890 8874 8855 8841 8833 8829
2237.9858 8822 8809 8795 8789 8801 8837 8893 8958 9017 9056 9071 9063 9038
2244.2534 9002 8959 8908 8852 8800 8761 8746 8761 8801 8853 8897 8917 8906
2250.5210 8869 8823 8788 8779 8798 8839 8884 8918 8929 8920 8901 8883 8877
2256.7883 8884 8899 8912 8914 8900 8872 8836 8802 8781 8777 8791 8817 8847
2263.0559 8870 8880 8873 8853 8824 8794 8770 8756 8755 8765 8782 8799 8811
2269.3235 8817 8821 8826 8836 8850 8862 8866 8861 8850 8842 8840 8847 8857
2275.5911 8864 8864 8855 8839 8820 8800 8781 8765 8755 8755 8768 8791 8818
2281.8584 8843 8856 8854 8839 8815 8789 8767 8751 8742 8738 8739 8742 8749
2288.1260 8759 8770 8783 8795 8806 8814 8818 8819 8814 8804 8791 8777 8766
2294.3936 8761 8763 8768 8775 8781 8785 8790 8794 8799 8804 8809 8811 8811
2300.6611 8810 8807 8806 8805 8806 8806 8802 8795 8784 8773 8764 8763 8767
2306.9285 8774 8781 8783 8782 8780 8777 8776 8775 8775 8776 8778 8779 8779
2313.1960 8774 8768 8762 8763 8773 8788 8802 8808 8804 8794 8787 8788 8797
2319.4636 8809 8817 8818 8811 8801 8791 8784 8779 8776 8775 8776 8777 8778
2325.7312 8776 8773 8770 8766 8762 8755 8743 8729 8715 8707 8709 8723 8747
2331.9985 8775 8800 8817 8825 8826 8823 8820 8818 8815 8808 8795 8778 8760
2338.2661 8747 8743 8747 8757 8766 8770 8767 8760 8752 8744 8740 8739 8742
2344.5337 8748 8756 8765 8772 8775 8774 8770 8764 8760 8757 8755 8752 8748
2350.8013 8743 8739 8741 8752 8771 8791 8805 8806 8798 8791 8796 8813 8831
2357.0686 8831 8804 8758 8717 8705 8728 8771 8808 8823 8814 8794 8778 8771
2363.3362 8770 8769 8766 8768 8782 8809 8843 8872 8885 8876 8846 8805 8761
2369.6038 8726 8704 8698 8703 8715 8728 8738 8746 8752 8758 8761 8758 8748
2375.8713 8730 8710 8691 8679 8675 8678 8686 8694 8700 8704 8704 8700 8695
2382.1387 8691 8688 8687 8689 8690 8691 8689 8686 8682 8680 8679 8679 8679
2388.4063 8679 8679 8679 8678 8676 8673 8669 8666 8666 8669 8676 8685 8692
2394.6738 8694 8689 8680 8670 8664 8663 8666 8671 8675 8677 8678 8681 8688
2400.9414 8695 8701 8700 8693 8682 8668 8656 8646 8641 8641 8645 8654 8665
2407.2087 8677 8684 8686 8682 8674 8665 8657 8651 8647 8645 8645 8646 8648
2413.4763 8649 8650 8650 8650 8649 8649 8650 8652 8653 8654 8652 8650 8647
2419.7439 8645 8645 8646 8648 8648 8646 8642 8637 8633 8631 8634 8640 8648
2426.0115 8656 8660 8660 8654 8644 8630 8615 8602 8592 8587 8586 8591 8599
2432.2788 8608 8617 8624 8627 8629 8628 8626 8622 8617 8611 8603 8594 8586
2438.5464 8579 8573 8571 8573 8581 8594 8605 8610 8605 8592 8577 8568 8567
2444.8140 8573 8580 8582 8577 8567 8557 8552 8553 8558 8564 8569 8571 8569
2451.0815 8565 8558 8551 8546 8543 8545 8549 8554 8558 8561 8562 8562 8559
2457.3489 8554 8546 8537 8529 8523 8520 8522 8526 8532 8538 8544 8547 8548
2463.6165 8545 8540 8533 8524 8517 8513 8512 8514 8518 8521 8522 8522 8520
2469.8840 8515 8508 8501 8495 8493 8495 8500 8504 8505 8502 8496 8491 8487
2476.1516 8487 8487 8488 8487 8485 8481 8478 8475 8473 8474 8478 8485 8491
2482.4189 8494 8491 8484 8476 8472 8473 8477 8479 8475 8466 8456 8449 8449
2488.6865 8454 8459 8461 8460 8455 8450 8447 8447 8447 8446 8445 8443 8440
2494.9541 8438 8436 8434 8431 8428 8428 8431 8437 8446 8454 8459 8460 8456
2501.2217 8450 8444 8440 8440 8442 8446 8448 8448 8445 8440 8435 8431 8430
2507.4890 8432 8434 8437 8438 8437 8433 8427 8420 8414 8411 8410 8411 8411
2513.7566 8409 8406 8403 8403 8406 8411 8415 8417 8415 8412 8409 8408 8409
2520.0242 8410 8407 8401 8393 8386 8382 8382 8385 8388 8392 8396 8402 8409
2526.2917 8414 8414 8405 8391 8375 8363 8356 8353 8351 8347 8345 8345 8351
2532.5591 8361 8370 8373 8366 8352 8334 8318 8310 8310 8317 8326 8335 8340
2538.8267 8342 8341 8340 8337 8332 8325 8318 8312 8308 8309 8311 8314 8314
2545.0942 8310 8304 8297 8291 8288 8288 8292 8296 8299 8299 8297 8294 8292
2551.3618 8291 8291 8292 8292 8291 8290 8289 8287 8285 8282 8279 8276 8274
2557.6292 8272 8270 8267 8265 8265 8267 8268 8267 8262 8251 8239 8230 8228
2563.8967 8232 8239 8242 8242 8238 8234 8233 8232 8229 8220 8207 8194 8187
2570.1643 8190 8199 8209 8214 8213 8207 8200 8195 8193 8192 8193 8194 8198
2576.4319 8202 8207 8210 8211 8209 8205 8201 8197 8195 8193 8190 8187 8183
2582.6995 8179 8177 8176 8177 8178 8178 8176 8173 8170 8168 8168 8168 8167
2588.9668 8164 8159 8154 8149 8149 8153 8159 8163 8163 8156 8145 8134 8126
2595.2344 8123 8124 8125 8125 8122 8117 8112 8108 8107 8107 8108 8110 8112
2601.5020 8113 8110 8104 8095 8084 8075 8069 8067 8067 8066 8065 8063 8061
2607.7695 8060 8059 8058 8056 8054 8053 8053 8055 8055 8052 8045 8038 8032
2614.0369 8028 8026 8026 8025 8023 8020 8017 8014 8009 8003 7997 7992 7988
2620.3044 7987 7988 7991 7994 7997 8001 8005 8008 8011 8013 8012 8011 8008
2626.5720 8004 8000 7996 7992 7988 7983 7979 7974 7970 7965 7960 7956 7952
2632.8396 7950 7949 7948 7946 7944 7941 7938 7935 7933 7930 7926 7921 7916
2639.1069 7911 7908 7907 7909 7912 7916 7921 7926 7930 7932 7933 7930 7926
2645.3745 7919 7911 7904 7898 7894 7893 7895 7899 7902 7904 7903 7900 7896
2651.6421 7891 7886 7882 7879 7876 7874 7873 7873 7872 7871 7869 7868 7869
2657.9097 7872 7875 7877 7877 7874 7870 7866 7865 7867 7871 7875 7877 7876
2664.1770 7872 7866 7860 7854 7849 7844 7841 7839 7839 7840 7842 7844 7844
2670.4446 7841 7836 7830 7825 7822 7820 7820 7819 7816 7812 7807 7803 7801
2676.7122 7802 7805 7807 7806 7801 7793 7783 7774 7769 7768 7771 7777 7783
2682.9797 7787 7789 7788 7785 7781 7775 7769 7763 7757 7753 7753 7754 7758
2689.2471 7763 7768 7771 7771 7770 7768 7765 7761 7756 7749 7742 7735 7730
2695.5146 7729 7731 7734 7738 7739 7737 7732 7727 7721 7717 7716 7716 7718
2701.7822 7721 7723 7723 7722 7719 7715 7710 7704 7697 7688 7680 7674 7672
2708.0498 7676 7684 7694 7704 7710 7713 7711 7708 7705 7702 7699 7694 7688
2714.3171 7680 7672 7666 7665 7670 7680 7692 7703 7710 7712 7708 7701 7693
2720.5847 7686 7682 7680 7678 7676 7671 7665 7658 7651 7645 7641 7638 7636
2726.8523 7637 7638 7641 7645 7650 7653 7653 7649 7642 7634 7626 7618 7608
2733.1199 7596 7586 7584 7592 7607 7620 7621 7609 7593 7587 7600 7630 7660
2739.3872 7673 7660 7628 7593 7571 7567 7576 7587 7593 7593 7590 7588 7587
2745.6548 7586 7582 7577 7570 7564 7557 7552 7547 7545 7545 7548 7553 7558
2751.9224 7563 7566 7568 7570 7571 7572 7574 7577 7582 7587 7591 7593 7590
2758.1899 7582 7569 7555 7541 7530 7525 7525 7529 7535 7540 7544 7547 7547
2764.4573 7547 7545 7542 7537 7530 7522 7515 7509 7505 7502 7501 7501 7503
2770.7249 7507 7514 7521 7528 7532 7531 7526 7517 7507 7497 7489 7486 7486
2776.9924 7488 7490 7489 7484 7475 7466 7459 7458 7462 7469 7475 7477 7474
2783.2600 7467 7459 7453 7450 7449 7450 7449 7447 7444 7438 7433 7430 7428
2789.5273 7430 7434 7440 7445 7448 7447 7442 7433 7422 7412 7404 7401 7403
2795.7949 7408 7414 7419 7422 7422 7420 7417 7415 7415 7416 7419 7422 7422
2802.0625 7420 7414 7408 7402 7398 7399 7402 7405 7407 7405 7401 7394 7389
2808.3301 7385 7386 7389 7394 7399 7402 7405 7407 7408 7407 7405 7402 7399
2814.5974 7397 7397 7400 7404 7410 7416 7422 7428 7433 7436 7439 7441 7445
2820.8650 7450 7458 7466 7472 7477 7480 7483 7487 7493 7501 7509 7516 7522
2827.1326 7527 7532 7539 7549 7563 7579 7596 7612 7626 7637 7646 7652 7658
2833.4001 7662 7665 7669 7674 7681 7691 7703 7716 7729 7740 7750 7759 7767
2839.6675 7776 7786 7795 7802 7809 7814 7819 7824 7830 7837 7845 7854 7862
2845.9351 7871 7880 7890 7898 7906 7914 7921 7929 7938 7950 7962 7974 7982
2852.2026 7988 7989 7987 7983 7979 7976 7976 7980 7987 7996 8006 8016 8026
2858.4702 8035 8043 8052 8059 8066 8073 8081 8091 8103 8116 8128 8138 8148
2864.7375 8158 8172 8188 8206 8223 8237 8249 8260 8271 8284 8298 8310 8319
2871.0051 8326 8331 8336 8341 8346 8351 8355 8357 8356 8355 8354 8354 8355
2877.2727 8357 8360 8363 8366 8368 8369 8370 8370 8371 8373 8376 8380 8384
2883.5403 8387 8389 8389 8388 8386 8383 8381 8378 8377 8377 8379 8381 8384
2889.8076 8386 8387 8388 8389 8392 8394 8397 8399 8402 8407 8413 8421 8430
2896.0752 8438 8444 8446 8447 8447 8448 8449 8450 8452 8452 8454 8456 8461
2902.3428 8470 8481 8494 8506 8515 8523 8533 8546 8563 8582 8599 8610 8613
2908.6104 8611 8606 8600 8595 8589 8582 8574 8567 8561 8558 8556 8556 8555
2914.8777 8554 8554 8554 8555 8555 8555 8555 8553 8552 8552 8554 8558 8565
2921.1453 8575 8589 8606 8622 8635 8644 8647 8647 8644 8642 8641 8641 8641
2927.4128 8641 8640 8638 8636 8635 8635 8636 8640 8644 8648 8652 8655 8658
2933.6804 8661 8668 8678 8691 8706 8720 8731 8739 8743 8744 8744 8742 8740
2939.9478 8738 8736 8733 8730 8727 8722 8717 8713 8710 8706 8700 8691 8679
2946.2153 8668 8659 8655 8653 8651 8647 8642 8637 8635 8635 8637 8637 8634
2952.4829 8629 8626 8626 8630 8636 8641 8643 8640 8633 8624 8615 8607 8602
2958.7505 8599 8597 8595 8591 8587 8584 8584 8587 8592 8597 8599 8598 8593
2965.0178 8588 8582 8579 8576 8574 8572 8568 8564 8561 8560 8561 8564 8567
2971.2854 8568 8566 8561 8555 8547 8540 8535 8531 8528 8523 8517 8510 8500
2977.5530 8489 8478 8468 8460 8454 8453 8455 8459 8464 8468 8469 8468 8466
2983.8206 8462 8458 8454 8449 8442 8435 8427 8420 8416 8414 8411 8407 8401
2990.0879 8393 8386 8381 8379 8378 8374 8368 8361 8354 8350 8350 8353 8358
2996.3555 8363 8366 8367 8364 8357 8348 8338 8329 8322 8317 8313 8310 8307
3002.6230 8303 8302 8302 8304 8308 8312 8316 8320 8321 8321 8319 8318 8316
3008.8906 8316 8316 8318 8319 8320 8319 8318 8315 8312 8309 8307 8306 8305
3015.1580 8306 8307 8309 8311 8311 8309 8305 8298 8289 8280 8272 8264 8257
3021.4255 8251 8246 8241 8238 8237 8235 8233 8229 8222 8213 8205 8198 8194
3027.6931 8192 8191 8189 8185 8178 8171 8165 8163 8166 8172 8177 8179 8175
3033.9607 8168 8160 8154 8153 8154 8154 8153 8150 8145 8142 8141 8143 8146
3040.2280 8148 8150 8149 8146 8142 8138 8136 8135 8136 8138 8140 8141 8141
3046.4956 8141 8141 8142 8143 8143 8142 8139 8135 8132 8130 8130 8131 8131
3052.7632 8130 8125 8119 8112 8107 8104 8105 8108 8112 8115 8115 8112 8106
3059.0308 8102 8099 8099 8100 8100 8098 8095 8090 8086 8085 8088 8093 8099
3065.2981 8104 8108 8110 8112 8113 8115 8114 8113 8109 8106 8102 8099 8097
3071.5657 8095 8093 8093 8091 8088 8082 8074 8067 8064 8065 8070 8075 8075
3077.8333 8071 8063 8057 8054 8055 8058 8060 8059 8056 8050 8045 8042 8041
3084.1008 8040 8039 8036 8034 8034 8037 8045 8055 8064 8068 8067 8063 8057
3090.3682 8054 8054 8058 8063 8068 8070 8070 8069 8068 8069 8071 8074 8078
3096.6357 8083 8088 8094 8102 8110 8116 8121 8123 8125 8129 8134 8140 8148
3102.9033 8156 8164 8171 8178 8184 8190 8195 8202 8209 8216 8223 8229 8234
3109.1709 8237 8242 8249 8258 8267 8274 8278 8279 8279 8281 8288 8297 8307
3115.4382 8315 8322 8327 8331 8335 8338 8338 8337 8335 8335 8338 8342 8345
3121.7058 8347 8347 8345 8342 8341 8341 8341 8342 8343 8343 8342 8341 8339
3127.9734 8337 8336 8337 8338 8339 8342 8344 8347 8350 8352 8353 8353 8352
3134.2410 8349 8346 8343 8340 8338 8338 8339 8342 8346 8351 8355 8358 8360
3140.5083 8361 8363 8364 8365 8367 8369 8369 8368 8366 8362 8358 8354 8351
3146.7759 8347 8343 8338 8332 8326 8322 8322 8324 8329 8336 8341 8344 8343
3153.0435 8340 8336 8332 8329 8325 8321 8316 8310 8307 8308 8311 8314 8313
3159.3110 8306 8294 8282 8274 8271 8271 8272 8270 8263 8253 8244 8238 8237
3165.5784 8240 8244 8248 8248 8245 8238 8229 8219 8212 8207 8206 8206 8207
3171.8459 8208 8208 8207 8205 8202 8197 8190 8184 8178 8174 8171 8170 8169
3178.1135 8166 8161 8155 8147 8141 8137 8135 8136 8137 8138 8136 8131 8124
3184.3811 8115 8105 8095 8087 8079 8072 8064 8054 8045 8037 8032 8030 8032
3190.6484 8035 8037 8036 8030 8021 8009 7996 7982 7969 7956 7945 7934 7926
3196.9160 7921 7919 7918 7915 7908 7895 7878 7859 7844 7835 7833 7834 7835
3203.1836 7831 7820 7807 7794 7786 7784 7785 7783 7776 7762 7743 7723 7707
3209.4512 7698 7695 7696 7700 7702 7702 7697 7687 7674 7659 7643 7627 7613
3215.7185 7602 7595 7592 7593 7596 7598 7597 7592 7582 7572 7562 7554 7549
3221.9861 7544 7539 7534 7530 7528 7528 7529 7529 7525 7518 7507 7494 7481
3228.2537 7472 7468 7469 7475 7485 7495 7506 7517 7528 7540 7552 7562 7568
3234.5212 7570 7568 7563 7561 7562 7569 7580 7594 7608 7620 7632 7643 7654
3240.7886 7668 7684 7703 7721 7736 7745 7749 7751 7757 7771 7791 7815 7836
3247.0562 7852 7864 7873 7885 7902 7922 7944 7965 7982 7995 8003 8006 8004
3253.3237 7999 7996 7996 8003 8017 8037 8062 8088 8112 8135 8154 8170 8183
3259.5913 8195 8206 8215 8221 8222 8218 8211 8203 8200 8206 8223 8248 8278
3265.8586 8305 8323 8330 8328 8320 8313 8312 8317 8327 8337 8343 8342 8333
3272.1262 8320 8308 8300 8298 8304 8315 8328 8343 8358 8375 8391 8405 8416
3278.3938 8423 8426 8424 8418 8410 8407 8413 8425 8435 8430 8410 8387 8385
3284.6614 8423 8499 8591 8658 8671 8626 8551 8484 8450 8450 8469 8486 8490
3290.9287 8481 8469 8462 8462 8469 8480 8490 8501 8508 8511 8508 8502 8494
3297.1963 8487 8483 8479 8476 8473 8471 8469 8470 8473 8476 8480 8483 8486
3303.4639 8491 8497 8506 8516 8524 8526 8520 8505 8484 8461 8442 8430 8426
3309.7314 8429 8434 8439 8441 8441 8439 8438 8435 8432 8427 8418 8405 8389
3315.9988 8372 8357 8346 8342 8347 8360 8379 8399 8417 8430 8437 8438 8434
3322.2664 8428 8424 8424 8432 8449 8471 8494 8514 8528 8536 8545 8558 8580
3328.5339 8609 8641 8672 8697 8716 8731 8746 8764 8786 8812 8840 8866 8887
3334.8015 8902 8913 8925 8942 8967 8999 9036 9074 9109 9141 9168 9190 9206
3341.0688 9216 9220 9222 9225 9233 9248 9268 9293 9318 9342 9361 9376 9386
3347.3364 9395 9404 9415 9428 9442 9454 9462 9466 9469 9473 9481 9495 9512
3353.6040 9530 9546 9557 9562 9562 9561 9561 9566 9575 9587 9600 9614 9627
3359.8716 9638 9648 9655 9658 9657 9652 9647 9643 9643 9649 9659 9670 9679
3366.1389 9686 9691 9697 9707 9721 9737 9750 9756 9753 9745 9738 9737 9746
3372.4065 9761 9777 9790 9797 9799 9799 9799 9802 9809 9819 9832 9848 9865
3378.6741 9880 9891 9898 9901 9901 9902 9903 9906 9910 9914 9919 9923 9927
3384.9417 9929 9930 9931 9932 9937 9946 9958 9970 9982 9990 9994 9995 9994
3391.2090 9994 9995 10001 10010 10022 10035 10047 10057 10066 10076 10087
3396.5125 10100 10114 10126 10133 10134 10130 10124 10119 10117 10117 10120
3401.8157 10124 10130 10138 10149 10161 10172 10183 10191 10197 10202 10207
3407.1189 10213 10218 10224 10230 10236 10240 10242 10242 10242 10244 10251
3412.4221 10263 10277 10293 10305 10314 10317 10316 10312 10306 10300 10297
3417.7256 10296 10300 10307 10314 10318 10317 10311 10302 10293 10289 10289
3423.0288 10294 10298 10299 10294 10284 10273 10264 10258 10254 10251 10248
3428.3320 10244 10240 10235 10230 10222 10211 10199 10186 10172 10159 10146
3433.6353 10133 10122 10113 10108 10107 10108 10111 10114 10115 10115 10111
3438.9387 10105 10094 10081 10065 10050 10036 10026 10020 10018 10019 10022
3444.2419 10027 10032 10035 10034 10029 10019 10009 10000 9993 9988 9983 9978
3450.0273 9973 9967 9961 9955 9951 9949 9953 9961 9970 9976 9974 9965 9952
3456.2949 9941 9935 9935 9938 9941 9941 9938 9934 9930 9927 9923 9920 9918
3462.5623 9917 9920 9925 9932 9937 9938 9935 9928 9920 9911 9906 9902 9901
3468.8298 9900 9899 9895 9890 9883 9878 9876 9877 9880 9884 9889 9894 9899
3475.0974 9905 9910 9913 9911 9906 9899 9893 9888 9884 9880 9876 9871 9868
3481.3650 9869 9874 9882 9889 9894 9895 9893 9890 9886 9882 9879 9875 9870
3487.6323 9865 9858 9850 9842 9836 9834 9836 9840 9844 9846 9844 9839 9836
3493.8999 9837 9843 9852 9859 9860 9855 9846 9838 9832 9829 9826 9822 9816
3500.1675 9810 9805 9801 9799 9797 9796 9795 9795 9798 9801 9804 9805 9804
3506.4351 9800 9797 9794 9792 9791 9790 9788 9786 9784 9782 9779 9774 9768
3512.7024 9761 9755 9753 9755 9760 9763 9764 9761 9756 9750 9746 9745 9747
3518.9700 9750 9751 9749 9744 9738 9733 9731 9734 9740 9748 9755 9757 9755
3525.2375 9750 9744 9737 9731 9725 9721 9717 9715 9714 9714 9716 9720 9726
3531.5051 9733 9740 9744 9743 9736 9726 9715 9708 9703 9700 9699 9699 9702
3537.7725 9710 9722 9733 9739 9737 9728 9717 9708 9706 9709 9714 9718 9716
3544.0400 9709 9699 9688 9680 9678 9683 9692 9702 9708 9710 9708 9705 9703
3550.3076 9704 9708 9714 9719 9722 9720 9714 9707 9700 9694 9692 9691 9692
3556.5752 9693 9692 9690 9688 9687 9687 9688 9689 9687 9685 9681 9679 9680
3562.8428 9682 9685 9687 9685 9680 9673 9666 9662 9664 9670 9678 9685 9691
3569.1101 9695 9697 9697 9693 9687 9679 9671 9665 9663 9665 9670 9674 9678
3575.3777 9679 9677 9673 9668 9663 9659 9658 9662 9668 9674 9677 9675 9669
3581.6453 9664 9662 9664 9668 9672 9671 9667 9662 9659 9662 9671 9684 9697
3587.9128 9705 9705 9700 9691 9679 9666 9653 9643 9639 9641 9649 9662 9676
3594.1802 9689 9696 9697 9689 9676 9660 9647 9640 9640 9645 9653 9659 9662
3600.4478 9662 9660 9659 9659 9661 9664 9665 9664 9660 9655 9649 9643 9641
3606.7153 9643 9650 9659 9667 9670 9666 9656 9643 9631 9620 9613 9610 9612
3612.9829 9617 9624 9630 9635 9636 9635 9632 9628 9626 9626 9628 9631 9635
3619.2502 9640 9646 9649 9647 9637 9623 9609 9600 9598 9603 9613 9621 9626
3625.5178 9626 9623 9619 9618 9623 9635 9657 9679 9688 9684 9673 9658 9644
3631.7854 9633 9625 9622 9625 9630 9633 9635 9634 9634 9637 9641 9646 9649
3638.0530 9647 9640 9630 9621 9615 9612 9613 9618 9624 9630 9636 9640 9641
3644.3203 9637 9629 9615 9599 9585 9582 9596 9623 9652 9675 9683 9676 9658
3650.5879 9639 9627 9620 9616 9613 9609 9604 9600 9598 9603 9616 9631 9640
3656.8555 9638 9628 9615 9605 9598 9595 9595 9596 9597 9599 9601 9603 9604
3663.1230 9605 9606 9609 9613 9616 9615 9608 9595 9579 9565 9557 9558 9571
3669.3904 9592 9613 9628 9632 9628 9620 9608 9596 9586 9582 9593 9630 9679
3675.6580 9704 9693 9665 9634 9607 9586 9573 9569 9573 9580 9586 9588 9589
3681.9255 9589 9590 9594 9599 9604 9607 9606 9600 9590 9579 9570 9568 9579
3688.1931 9599 9618 9627 9626 9619 9611 9604 9598 9593 9589 9586 9584 9583
3694.4604 9584 9584 9582 9579 9576 9572 9568 9564 9559 9555 9552 9553 9560
3700.7280 9574 9591 9604 9608 9603 9594 9585 9582 9584 9591 9599 9601 9595
3706.9956 9583 9568 9555 9549 9550 9554 9556 9556 9556 9562 9576 9591 9599
3713.2632 9598 9592 9585 9579 9574 9570 9566 9563 9559 9558 9559 9563 9569
3719.5305 9575 9580 9583 9583 9580 9574 9564 9556 9551 9551 9555 9563 9573
3725.7981 9583 9588 9589 9585 9579 9574 9569 9566 9564 9564 9567 9571 9575
3732.0657 9575 9572 9570 9573 9582 9597 9610 9610 9596 9577 9561 9552 9551
3738.3333 9554 9559 9564 9568 9571 9570 9565 9555 9542 9525 9508 9500 9516
3744.6006 9555 9590 9604 9602 9588 9567 9541 9519 9511 9525 9553 9580 9594
3750.8682 9597 9595 9595 9599 9599 9593 9581 9566 9549 9533 9521 9513 9510
3757.1357 9512 9518 9529 9545 9565 9584 9594 9597 9593 9586 9577 9566 9555
3763.4033 9544 9535 9531 9534 9542 9552 9558 9558 9553 9547 9542 9540 9544
3769.6707 9552 9560 9563 9560 9554 9547 9542 9539 9538 9539 9540 9540 9538
3775.9382 9534 9527 9520 9514 9511 9516 9532 9554 9575 9588 9589 9581 9566
3782.2058 9546 9526 9510 9500 9500 9508 9521 9533 9540 9541 9534 9523 9512
3788.4734 9507 9510 9522 9536 9545 9546 9538 9524 9512 9506 9507 9513 9520
3794.7407 9523 9521 9514 9507 9505 9508 9515 9523 9530 9535 9541 9547 9555
3801.0083 9561 9558 9546 9531 9516 9503 9493 9485 9478 9476 9481 9497 9520
3807.2759 9540 9551 9553 9549 9543 9535 9524 9513 9500 9490 9484 9483 9486
3813.5435 9493 9505 9521 9544 9571 9590 9595 9588 9577 9566 9559 9557 9559
3819.8108 9567 9575 9576 9565 9547 9529 9515 9505 9497 9492 9489 9491 9497
3826.0784 9507 9518 9524 9526 9525 9524 9521 9513 9494 9466 9442 9444 9483
3832.3459 9546 9610 9651 9652 9612 9553 9504 9484 9492 9514 9531 9533 9523
3838.6135 9513 9512 9517 9523 9525 9525 9524 9527 9534 9544 9552 9555 9550
3844.8809 9538 9524 9509 9497 9488 9485 9486 9491 9497 9499 9495 9483 9465
3851.1484 9445 9434 9447 9502 9592 9664 9675 9641 9592 9546 9511 9489 9482
3857.4160 9486 9497 9508 9516 9522 9527 9536 9546 9556 9561 9560 9554 9544
3863.6836 9535 9527 9520 9514 9508 9500 9493 9486 9481 9481 9486 9499 9514
3869.9509 9521 9516 9505 9493 9483 9478 9479 9487 9499 9509 9514 9515 9514
3876.2185 9513 9511 9507 9500 9492 9484 9481 9484 9493 9502 9505 9503 9497
3882.4861 9491 9486 9480 9475 9469 9464 9460 9460 9462 9466 9469 9472 9476
3888.7537 9480 9486 9494 9501 9505 9504 9497 9490 9484 9483 9486 9491 9496
3895.0210 9497 9494 9487 9479 9473 9469 9469 9471 9472 9472 9470 9470 9474
3901.2886 9484 9497 9510 9520 9523 9521 9516 9510 9504 9499 9495 9492 9490
3907.5562 9491 9493 9497 9499 9498 9493 9486 9479 9474 9473 9476 9480 9482
3913.8237 9479 9473 9464 9456 9453 9457 9464 9472 9476 9476 9474 9471 9469
3920.0911 9468 9468 9469 9471 9473 9476 9477 9476 9472 9468 9468 9471 9477
3926.3586 9483 9488 9492 9494 9494 9493 9488 9481 9472 9462 9456 9453 9454
3932.6262 9456 9459 9462 9466 9471 9477 9483 9488 9490 9489 9486 9481 9475
3938.8938 9470 9466 9464 9464 9465 9468 9470 9471 9470 9468 9465 9461 9458
3945.1611 9457 9458 9462 9467 9472 9475 9474 9471 9467 9464 9463 9463 9463
3951.4287 9462 9462 9461 9462 9464 9466 9468 9468 9468 9468 9468 9468 9467
3957.6963 9465 9461 9456 9452 9449 9450 9453 9459 9464 9467 9467 9466 9463
3963.9639 9460 9456 9453 9449 9445 9440 9437 9438 9442 9448 9455 9458 9456
3970.2312 9451 9446 9443 9445 9450 9456 9461 9463 9463 9462 9462 9464 9466
3976.4988 9469 9470 9469 9467 9463 9459 9456 9453 9450 9448 9446 9445 9446
3982.7664 9448 9452 9455 9459 9462 9465 9467 9468 9468 9468 9466 9464 9461
3989.0339 9457 9454 9449 9445 9441 9440 9443 9449 9458 9466 9471 9469 9463
3995.3013 9453 9446 9444 9447 9454 9462 9467 9468 9467 9465 9466
##END= 
