##TITLE= INC34_2
##JCAMP-DX= 4.24
##DATA TYPE= INFRARED SPECTRUM
##ORIGIN= JASCO
##OWNER= 
##DATE= 22/04/13
##TIME= 15:06:08
##SPECTROMETER/DATA SYSTEM= 
##RESOLUTION= 
##DELTAX=   0.48211674
##XUNITS= 1/CM
##YUNITS= TRANSMITTANCE
##XFACTOR= 1.00000
##YFACTOR= 0.0001
##FIRSTX=   599.7532
##LASTX=  4000.1226
##NPOINTS=     7054
##FIRSTY=      0.58064
##MAXY=      1.06373
##MINY=      0.57930
##XYDATA= (X++(Y..Y))
599.7532 5806 5800 5793 5795 5812 5845 5887 5932 5975 6013 6045 6071 6093 6113
606.5029 6137 6169 6212 6262 6313 6357 6390 6414 6436 6464 6504 6555 6613 6671
613.2525 6721 6759 6782 6792 6789 6773 6744 6701 6643 6574 6501 6430 6371 6330
620.0021 6315 6333 6385 6468 6571 6677 6769 6840 6890 6932 6985 7064 7175 7310
626.7518 7449 7576 7681 7766 7838 7905 7972 8038 8101 8160 8216 8270 8323 8370
633.5014 8409 8436 8453 8463 8469 8471 8470 8465 8456 8446 8438 8438 8446 8461
640.2510 8476 8477 8455 8401 8317 8215 8110 8025 7979 7985 8049 8167 8322 8493
647.0007 8655 8789 8885 8948 8989 9022 9055 9089 9121 9146 9165 9178 9189 9200
653.7503 9211 9223 9233 9238 9238 9236 9236 9241 9254 9267 9271 9262 9239 9215
660.4999 9203 9209 9231 9254 9266 9261 9245 9232 9233 9249 9274 9302 9328 9358
667.2496 9399 9454 9474 9405 9287 9171 9073 8997 8949 8930 8933 8939 8926 8887
673.9992 8838 8808 8829 8912 9042 9177 9273 9301 9267 9192 9103 9010 8912 8807
680.7488 8702 8618 8571 8569 8598 8630 8641 8618 8572 8524 8497 8496 8518 8549
687.4985 8576 8594 8602 8602 8594 8578 8555 8525 8492 8454 8407 8346 8264 8159
694.2481 8028 7877 7712 7546 7394 7270 7178 7112 7057 6995 6921 6841 6771 6727
700.9977 6718 6746 6805 6889 6995 7123 7265 7412 7548 7661 7751 7827 7903 7990
707.7474 8087 8183 8266 8326 8365 8393 8423 8461 8503 8541 8564 8573 8572 8573
714.4970 8584 8602 8621 8632 8630 8617 8600 8586 8580 8578 8574 8564 8544 8519
721.2466 8496 8479 8468 8462 8458 8456 8458 8465 8479 8497 8514 8527 8537 8545
727.9963 8556 8569 8580 8587 8586 8580 8577 8582 8596 8615 8632 8643 8646 8646
734.7459 8643 8638 8627 8609 8584 8560 8541 8533 8533 8534 8529 8510 8479 8439
741.4955 8394 8348 8302 8253 8202 8150 8101 8056 8018 7983 7950 7919 7894 7880
748.2452 7878 7884 7890 7887 7873 7853 7835 7828 7833 7847 7859 7863 7856 7843
754.9948 7830 7823 7826 7839 7858 7879 7898 7912 7919 7913 7892 7854 7799 7734
761.7444 7668 7611 7571 7550 7543 7543 7544 7542 7537 7531 7527 7530 7543 7568
768.4941 7604 7645 7684 7716 7737 7748 7752 7756 7760 7765 7772 7781 7792 7807
775.2437 7827 7850 7873 7893 7909 7922 7934 7948 7964 7982 8000 8017 8030 8041
781.9933 8050 8060 8071 8083 8097 8110 8121 8130 8136 8140 8143 8146 8150 8154
788.7430 8159 8165 8171 8178 8186 8197 8210 8227 8245 8263 8280 8297 8317 8340
795.4926 8366 8389 8407 8418 8423 8428 8439 8458 8486 8520 8555 8586 8611 8628
802.2422 8640 8649 8657 8667 8678 8686 8690 8691 8691 8691 8693 8697 8701 8704
808.9919 8707 8710 8715 8724 8739 8760 8788 8818 8844 8861 8865 8860 8851 8844
815.7415 8843 8849 8856 8859 8856 8849 8840 8832 8829 8827 8826 8822 8815 8805
822.4911 8797 8791 8789 8787 8778 8755 8712 8649 8572 8491 8421 8373 8359 8381
829.2408 8442 8534 8650 8777 8901 9009 9090 9137 9150 9137 9106 9068 9031 9000
835.9904 8976 8960 8949 8944 8943 8946 8950 8955 8959 8959 8954 8943 8929 8914
842.7401 8904 8901 8906 8916 8927 8934 8935 8931 8924 8917 8910 8905 8900 8896
849.4897 8895 8899 8907 8917 8928 8937 8943 8946 8948 8947 8944 8937 8928 8921
856.2393 8919 8926 8940 8958 8974 8987 8993 8995 8995 8995 8995 8995 8994 8992
862.9890 8993 8997 9009 9026 9047 9068 9084 9095 9103 9110 9120 9133 9148 9160
869.7386 9167 9164 9153 9134 9112 9091 9075 9066 9061 9059 9055 9047 9039 9034
876.4882 9037 9050 9073 9101 9131 9157 9177 9190 9198 9206 9218 9239 9270 9308
883.2379 9347 9382 9408 9423 9427 9421 9406 9380 9346 9307 9268 9236 9214 9203
889.9875 9199 9199 9203 9211 9228 9258 9302 9357 9419 9482 9541 9592 9632 9660
896.7371 9675 9680 9680 9682 9692 9715 9751 9794 9835 9860 9856 9818 9747 9652
903.4868 9543 9433 9329 9235 9153 9082 9023 8976 8942 8919 8903 8893 8886 8882
910.2364 8882 8886 8895 8910 8930 8952 8975 8996 9015 9029 9039 9045 9048 9050
916.9860 9051 9053 9056 9060 9063 9062 9058 9048 9033 9015 8994 8973 8952 8933
923.7357 8916 8903 8893 8886 8878 8868 8853 8836 8816 8797 8779 8764 8750 8736
930.4853 8719 8698 8674 8646 8616 8585 8552 8517 8482 8449 8424 8415 8425 8457
937.2349 8506 8565 8625 8679 8722 8754 8777 8793 8802 8807 8810 8812 8814 8818
943.9846 8822 8825 8828 8832 8837 8845 8856 8870 8885 8902 8921 8940 8961 8981
950.7342 9000 9015 9024 9023 9013 8995 8971 8945 8920 8898 8879 8864 8850 8837
957.4838 8824 8810 8796 8782 8770 8759 8751 8743 8735 8727 8721 8716 8713 8709
964.2335 8704 8694 8681 8665 8645 8622 8596 8567 8540 8523 8523 8543 8581 8629
970.9831 8678 8719 8748 8766 8777 8787 8797 8811 8827 8844 8860 8872 8879 8880
977.7327 8877 8870 8860 8848 8834 8815 8794 8771 8747 8726 8708 8694 8684 8677
984.4824 8672 8667 8662 8654 8645 8635 8625 8617 8611 8607 8603 8599 8595 8592
991.2320 8590 8591 8594 8598 8602 8607 8613 8624 8640 8661 8684 8705 8719 8723
997.9816 8716 8700 8680 8660 8643 8629 8620 8614 8610 8607 8603 8596 8587 8574
1004.7313 8559 8545 8532 8522 8515 8511 8509 8508 8507 8505 8503 8500 8496
1010.9988 8491 8485 8477 8469 8462 8459 8461 8465 8468 8469 8465 8456 8444
1017.2663 8429 8413 8396 8378 8360 8342 8325 8310 8296 8280 8262 8238 8209
1023.5338 8174 8133 8086 8031 7967 7892 7808 7721 7641 7581 7557 7581 7661
1029.8014 7795 7973 8180 8394 8597 8775 8919 9027 9102 9146 9166 9166 9153
1036.0688 9133 9114 9105 9111 9136 9179 9237 9305 9376 9445 9507 9560 9601
1042.3364 9632 9651 9659 9658 9646 9626 9596 9558 9515 9469 9422 9376 9332
1048.6039 9289 9246 9204 9165 9133 9108 9091 9081 9074 9068 9058 9046 9033
1054.8715 9019 9007 9000 8997 8998 9001 9005 9009 9013 9020 9030 9044 9058
1061.1389 9071 9079 9080 9073 9059 9039 9014 8985 8956 8927 8901 8879 8860
1067.4065 8843 8829 8816 8805 8795 8788 8784 8783 8786 8790 8793 8794 8791
1073.6740 8787 8782 8778 8776 8775 8771 8765 8757 8747 8736 8725 8713 8701
1079.9415 8689 8680 8673 8669 8666 8660 8650 8638 8625 8617 8614 8619 8628
1086.2090 8638 8645 8646 8640 8629 8617 8605 8594 8587 8585 8590 8601 8617
1092.4766 8636 8655 8674 8691 8707 8723 8739 8754 8768 8781 8792 8798 8800
1098.7440 8797 8793 8793 8798 8809 8824 8837 8845 8845 8839 8829 8816 8801
1105.0116 8785 8768 8748 8727 8703 8678 8654 8632 8614 8602 8594 8590 8590
1111.2791 8593 8598 8604 8610 8614 8613 8605 8591 8573 8552 8531 8513 8496
1117.5466 8481 8466 8449 8430 8411 8394 8379 8369 8361 8357 8356 8360 8371
1123.8141 8388 8413 8443 8478 8516 8554 8591 8626 8659 8689 8720 8752 8787
1130.0817 8823 8857 8889 8916 8939 8959 8976 8988 8994 8992 8982 8966 8945
1136.3491 8921 8896 8869 8840 8809 8777 8746 8718 8694 8674 8657 8643 8629
1142.6167 8618 8608 8602 8598 8597 8596 8592 8583 8570 8552 8531 8507 8480
1148.8842 8450 8418 8388 8362 8343 8332 8329 8334 8345 8363 8386 8412 8437
1155.1517 8458 8474 8483 8487 8488 8488 8490 8493 8496 8499 8501 8502 8502
1161.4192 8503 8506 8510 8515 8519 8522 8525 8528 8533 8540 8548 8556 8562
1167.6868 8564 8561 8553 8543 8532 8520 8508 8496 8483 8470 8459 8452 8450
1173.9542 8454 8462 8470 8477 8482 8483 8483 8482 8481 8479 8476 8472 8467
1180.2218 8463 8460 8460 8463 8470 8480 8491 8502 8510 8513 8510 8501 8486
1186.4893 8465 8441 8413 8384 8356 8330 8309 8292 8279 8268 8257 8245 8231
1192.7568 8217 8202 8188 8173 8158 8143 8129 8116 8105 8094 8082 8067 8047
1199.0243 8021 7990 7954 7918 7886 7865 7863 7886 7935 8007 8094 8188 8278
1205.2919 8357 8421 8468 8502 8525 8539 8549 8557 8563 8568 8573 8578 8584
1211.5593 8590 8597 8604 8612 8619 8627 8635 8644 8654 8665 8674 8681 8684
1217.8269 8682 8674 8661 8642 8620 8596 8571 8547 8524 8502 8480 8458 8437
1224.0944 8417 8400 8387 8379 8373 8369 8364 8360 8357 8354 8355 8358 8364
1230.3619 8373 8385 8397 8410 8424 8439 8453 8468 8481 8493 8504 8515 8527
1236.6294 8543 8562 8585 8610 8635 8662 8689 8717 8747 8779 8812 8845 8873
1242.8970 8894 8906 8909 8901 8885 8863 8836 8806 8774 8739 8702 8663 8624
1249.1644 8585 8547 8511 8478 8448 8423 8402 8384 8370 8358 8347 8338 8330
1255.4320 8323 8318 8314 8312 8311 8313 8317 8322 8328 8337 8348 8363 8384
1261.6995 8408 8435 8462 8486 8505 8516 8518 8509 8487 8455 8417 8380 8353
1267.9670 8343 8349 8363 8377 8384 8380 8366 8347 8325 8302 8278 8254 8229
1274.2345 8205 8184 8166 8152 8141 8133 8127 8123 8122 8124 8129 8137 8148
1280.5021 8160 8176 8194 8214 8236 8258 8276 8291 8301 8307 8310 8309 8307
1286.7695 8303 8299 8295 8293 8293 8296 8302 8311 8320 8330 8340 8349 8355
1293.0371 8360 8362 8362 8362 8363 8365 8369 8374 8380 8386 8391 8397 8402
1299.3046 8408 8413 8418 8422 8425 8428 8430 8432 8436 8441 8448 8455 8460
1305.5721 8464 8465 8466 8466 8467 8469 8472 8475 8478 8480 8479 8476 8470
1311.8396 8460 8447 8432 8416 8400 8384 8368 8352 8336 8320 8305 8292 8282
1318.1072 8275 8273 8273 8275 8278 8281 8284 8286 8288 8290 8291 8292 8293
1324.3746 8293 8292 8292 8291 8291 8289 8287 8284 8278 8269 8258 8243 8226
1330.6422 8207 8185 8160 8132 8103 8073 8043 8013 7983 7952 7921 7888 7854
1336.9097 7820 7786 7755 7730 7717 7722 7751 7804 7875 7957 8044 8132 8217
1343.1772 8295 8363 8416 8454 8477 8486 8483 8471 8454 8432 8407 8381 8355
1349.4447 8330 8306 8286 8269 8255 8243 8233 8224 8215 8207 8199 8191 8184
1355.7123 8177 8170 8163 8155 8146 8136 8125 8113 8101 8089 8075 8061 8048
1361.9797 8035 8027 8022 8021 8020 8019 8014 8007 7998 7989 7981 7975 7972
1368.2473 7972 7975 7978 7979 7978 7972 7962 7948 7931 7912 7894 7876 7861
1374.5148 7847 7834 7820 7804 7788 7772 7757 7743 7728 7714 7697 7678 7657
1380.7823 7635 7610 7586 7560 7533 7504 7475 7446 7418 7391 7367 7345 7328
1387.0498 7314 7303 7293 7282 7269 7252 7233 7212 7191 7170 7150 7133 7119
1393.3174 7110 7110 7125 7154 7195 7236 7274 7308 7340 7377 7425 7484 7550
1399.5848 7613 7667 7711 7749 7787 7824 7862 7898 7935 7974 8019 8071 8124
1405.8524 8175 8222 8266 8310 8354 8400 8444 8486 8524 8559 8589 8616 8639
1412.1199 8657 8668 8674 8672 8664 8650 8629 8601 8566 8524 8480 8433 8381
1418.3875 8318 8241 8158 8087 8036 8001 7977 7962 7959 7977 8024 8103 8204
1424.6549 8313 8421 8524 8625 8722 8811 8888 8951 9001 9041 9077 9109 9137
1430.9225 9159 9177 9192 9206 9219 9231 9240 9245 9247 9247 9248 9254 9266
1437.1899 9281 9293 9301 9308 9315 9323 9332 9341 9350 9358 9364 9370 9377
1443.4575 9385 9393 9402 9410 9416 9419 9418 9411 9397 9379 9361 9347 9337
1449.7250 9329 9322 9313 9304 9295 9287 9281 9276 9271 9267 9262 9256 9248
1455.9926 9235 9215 9190 9171 9163 9164 9169 9173 9176 9175 9170 9164 9155
1462.2600 9146 9136 9126 9113 9098 9082 9069 9060 9055 9052 9048 9044 9038
1468.5276 9032 9025 9016 9006 8995 8981 8965 8948 8932 8921 8914 8909 8903
1474.7950 8895 8886 8875 8866 8859 8853 8846 8837 8824 8808 8790 8770 8750
1481.0626 8729 8708 8686 8664 8643 8624 8607 8594 8586 8583 8590 8610 8643
1487.3301 8683 8721 8752 8776 8799 8826 8858 8886 8906 8916 8920 8919 8916
1493.5977 8911 8904 8895 8886 8877 8872 8869 8869 8869 8869 8868 8866 8864
1499.8651 8860 8855 8848 8841 8835 8828 8823 8818 8812 8804 8795 8782 8765
1506.1327 8745 8727 8720 8720 8724 8727 8731 8732 8731 8729 8725 8721 8716
1512.4001 8711 8705 8697 8687 8675 8663 8652 8645 8646 8656 8669 8679 8682
1518.6677 8678 8669 8656 8642 8631 8630 8641 8654 8659 8658 8654 8648 8643
1524.9352 8640 8638 8636 8632 8627 8623 8622 8624 8627 8628 8626 8619 8609
1531.2028 8596 8584 8572 8564 8563 8568 8575 8581 8582 8579 8572 8562 8550
1537.4702 8537 8526 8517 8516 8523 8531 8531 8527 8522 8517 8512 8506 8498
1543.7378 8489 8481 8477 8476 8479 8481 8480 8476 8469 8459 8447 8437 8431
1550.0052 8430 8432 8433 8429 8421 8409 8395 8382 8373 8369 8366 8361 8351
1556.2728 8337 8318 8296 8272 8254 8260 8287 8304 8306 8300 8289 8277 8264
1562.5403 8249 8234 8221 8211 8205 8202 8199 8192 8180 8165 8147 8128 8110
1568.8079 8093 8080 8068 8054 8036 8016 7992 7965 7936 7905 7876 7849 7831
1575.0753 7834 7880 7980 8102 8198 8259 8298 8327 8349 8363 8368 8362 8347
1581.3429 8326 8301 8276 8251 8226 8201 8177 8152 8127 8101 8073 8042 8008
1587.6105 7969 7926 7877 7824 7768 7711 7657 7611 7576 7559 7562 7588 7638
1593.8779 7708 7792 7879 7959 8027 8082 8123 8155 8179 8196 8208 8218 8226
1600.1455 8235 8246 8260 8276 8293 8310 8328 8344 8357 8365 8368 8365 8355
1606.4130 8339 8319 8294 8266 8234 8201 8166 8132 8100 8071 8048 8030 8018
1612.6805 8011 8009 8009 8010 8010 8013 8026 8062 8122 8190 8244 8281 8312
1618.9480 8346 8386 8432 8478 8519 8553 8580 8604 8626 8643 8651 8649 8640
1625.2156 8627 8614 8600 8589 8582 8580 8581 8583 8583 8581 8580 8579 8581
1631.4830 8583 8585 8585 8583 8580 8577 8576 8581 8591 8599 8602 8601 8599
1637.7506 8597 8597 8597 8596 8595 8594 8593 8592 8592 8591 8590 8586 8580
1644.0181 8572 8563 8553 8545 8543 8548 8561 8576 8588 8595 8597 8593 8585
1650.2856 8572 8556 8537 8516 8497 8495 8526 8558 8570 8570 8567 8565 8565
1656.5531 8568 8572 8578 8586 8597 8609 8621 8632 8640 8647 8654 8665 8683
1662.8207 8708 8732 8748 8756 8755 8745 8728 8703 8673 8638 8596 8541 8471
1669.0881 8390 8312 8244 8183 8120 8054 7988 7928 7875 7829 7785 7743 7705
1675.3557 7677 7659 7645 7631 7615 7598 7584 7576 7578 7590 7609 7629 7643
1681.6232 7649 7647 7640 7640 7674 7775 7903 7981 8011 8022 8029 8041 8060
1687.8907 8087 8121 8160 8200 8238 8272 8303 8330 8354 8375 8390 8401 8408
1694.1582 8413 8422 8443 8488 8551 8609 8651 8682 8706 8727 8760 8846 9055
1700.4258 9354 9577 9698 9777 9851 9937 10038 10150 10260 10354 10426 10481
1706.2112 10529 10572 10607 10630 10637 10628 10602 10560 10505 10445 10390
1711.5144 10343 10304 10271 10240 10210 10183 10162 10152 10152 10159 10170
1716.8177 10181 10194 10206 10218 10230 10239 10245 10248 10246 10239 10228
1722.1210 10211 10190 10164 10136 10109 10084 10061 10041 10021 10002 9983
1727.4243 9964 9946 9927 9907 9886 9865 9846 9829 9814 9797 9779 9757 9729
1733.6918 9698 9676 9666 9662 9658 9653 9645 9637 9628 9621 9615 9612 9609
1739.9594 9607 9603 9598 9591 9583 9574 9564 9555 9548 9543 9539 9534 9527
1746.2268 9519 9511 9504 9498 9494 9490 9487 9484 9482 9481 9484 9488 9491
1752.4944 9493 9491 9488 9483 9477 9472 9466 9462 9458 9456 9455 9454 9453
1758.7618 9450 9447 9443 9438 9432 9429 9428 9429 9431 9433 9432 9430 9426
1765.0294 9422 9416 9409 9402 9396 9392 9390 9390 9390 9389 9388 9387 9388
1771.2969 9393 9402 9410 9413 9413 9412 9409 9407 9404 9400 9395 9391 9388
1777.5645 9386 9386 9386 9386 9387 9388 9389 9390 9389 9388 9387 9385 9384
1783.8319 9383 9383 9384 9384 9384 9383 9382 9381 9381 9382 9381 9380 9375
1790.0995 9369 9360 9353 9349 9350 9355 9361 9363 9362 9357 9351 9347 9345
1796.3669 9346 9346 9345 9341 9335 9328 9322 9321 9322 9325 9329 9334 9338
1802.6345 9342 9346 9347 9346 9344 9341 9339 9339 9339 9340 9340 9337 9332
1808.9020 9327 9323 9321 9322 9325 9329 9333 9337 9340 9343 9344 9344 9343
1815.1696 9341 9340 9339 9338 9338 9337 9338 9339 9341 9343 9344 9344 9343
1821.4370 9340 9337 9332 9327 9320 9313 9307 9303 9303 9306 9309 9311 9312
1827.7046 9311 9308 9305 9303 9305 9313 9323 9331 9336 9336 9334 9330 9326
1833.9720 9323 9322 9321 9320 9317 9314 9311 9308 9306 9304 9302 9300 9298
1840.2396 9297 9297 9297 9299 9302 9306 9312 9319 9324 9325 9322 9316 9310
1846.5071 9303 9297 9291 9287 9289 9295 9303 9310 9312 9308 9299 9289 9280
1852.7747 9277 9279 9283 9287 9289 9290 9291 9292 9294 9293 9289 9281 9271
1859.0421 9262 9258 9260 9267 9277 9285 9291 9292 9291 9286 9280 9274 9267
1865.3097 9261 9257 9255 9254 9253 9252 9252 9256 9264 9275 9284 9289 9288
1871.5771 9284 9279 9274 9270 9269 9267 9266 9264 9262 9260 9259 9260 9262
1877.8447 9267 9274 9280 9285 9285 9281 9274 9265 9257 9252 9251 9253 9260
1884.1122 9269 9278 9284 9287 9286 9284 9283 9283 9284 9284 9280 9274 9268
1890.3798 9265 9264 9265 9267 9268 9268 9268 9267 9265 9261 9255 9249 9245
1896.6472 9243 9244 9247 9250 9253 9256 9257 9258 9255 9250 9242 9232 9222
1902.9148 9211 9203 9198 9197 9202 9212 9224 9236 9245 9252 9254 9253 9250
1909.1823 9245 9240 9235 9233 9232 9233 9235 9238 9243 9250 9258 9267 9276
1915.4498 9282 9287 9287 9284 9277 9267 9258 9252 9246 9239 9229 9216 9203
1921.7173 9195 9198 9212 9230 9246 9254 9254 9249 9244 9245 9250 9256 9259
1927.9849 9254 9244 9233 9229 9233 9243 9250 9249 9238 9225 9219 9229 9252
1934.2523 9281 9305 9318 9319 9311 9301 9291 9282 9273 9263 9253 9246 9246
1940.5199 9256 9277 9308 9343 9370 9380 9368 9339 9300 9261 9231 9215 9213
1946.7874 9218 9223 9222 9217 9214 9223 9245 9279 9312 9334 9337 9325 9305
1953.0549 9287 9276 9273 9277 9287 9301 9319 9338 9356 9371 9384 9398 9414
1959.3224 9429 9436 9427 9401 9364 9332 9318 9333 9377 9438 9501 9552 9581
1965.5900 9587 9575 9552 9523 9489 9446 9395 9343 9300 9281 9294 9337 9397
1971.8574 9452 9482 9481 9455 9418 9387 9372 9378 9405 9448 9505 9566 9620
1978.1250 9653 9655 9625 9575 9521 9475 9443 9422 9406 9386 9357 9322 9286
1984.3925 9260 9251 9260 9285 9317 9347 9371 9386 9398 9409 9421 9434 9441
1990.6600 9435 9411 9369 9316 9267 9236 9229 9247 9283 9329 9373 9408 9426
1996.9275 9427 9414 9394 9375 9364 9364 9372 9381 9386 9387 9389 9402 9432
2003.1951 9477 9526 9566 9587 9589 9577 9558 9539 9518 9493 9462 9425 9388
2009.4625 9355 9337 9340 9368 9415 9469 9513 9535 9536 9522 9507 9498 9495
2015.7301 9495 9496 9497 9504 9515 9528 9535 9532 9520 9504 9487 9471 9456
2021.9976 9444 9442 9454 9482 9516 9546 9564 9574 9588 9613 9645 9672 9675
2028.2651 9648 9597 9541 9495 9468 9457 9458 9466 9482 9508 9540 9571 9591
2034.5326 9596 9582 9553 9511 9459 9403 9351 9316 9311 9339 9393 9456 9507
2040.8002 9530 9523 9498 9473 9458 9455 9453 9441 9411 9365 9312 9268 9244
2047.0676 9249 9280 9330 9383 9420 9430 9413 9378 9341 9314 9300 9298 9300
2053.3352 9301 9300 9299 9299 9299 9300 9297 9292 9286 9285 9288 9297 9305
2059.6028 9309 9308 9302 9296 9294 9297 9305 9313 9317 9313 9301 9284 9268
2065.8701 9261 9266 9281 9301 9316 9321 9312 9291 9265 9240 9223 9214 9214
2072.1377 9219 9224 9225 9218 9206 9191 9180 9175 9180 9194 9213 9232 9246
2078.4053 9253 9252 9247 9239 9229 9220 9210 9201 9192 9187 9188 9195 9206
2084.6729 9217 9222 9218 9205 9189 9178 9177 9188 9206 9223 9234 9235 9229
2090.9402 9220 9210 9203 9198 9196 9197 9200 9205 9210 9213 9213 9208 9200
2097.2078 9189 9178 9170 9170 9180 9198 9217 9229 9230 9218 9202 9189 9189
2103.4753 9200 9218 9234 9240 9236 9225 9215 9211 9214 9221 9229 9236 9243
2109.7429 9253 9264 9275 9280 9275 9257 9233 9211 9200 9204 9221 9241 9256
2116.0103 9258 9247 9229 9211 9198 9192 9192 9196 9203 9210 9217 9221 9219
2122.2778 9211 9200 9190 9183 9182 9186 9191 9195 9197 9197 9197 9199 9204
2128.5454 9211 9219 9225 9224 9215 9202 9188 9182 9188 9206 9233 9263 9288
2134.8130 9303 9307 9300 9288 9275 9267 9267 9274 9284 9287 9277 9250 9212
2141.0803 9173 9147 9143 9163 9199 9238 9272 9294 9307 9316 9325 9336 9346
2147.3479 9355 9359 9359 9354 9342 9325 9309 9302 9309 9329 9351 9362 9351
2153.6155 9323 9295 9286 9309 9358 9412 9449 9460 9456 9458 9482 9527 9569
2159.8831 9589 9587 9583 9595 9630 9673 9696 9682 9627 9547 9465 9399 9355
2166.1504 9334 9332 9344 9367 9392 9412 9423 9429 9441 9468 9508 9545 9558
2172.4180 9534 9476 9399 9325 9269 9237 9228 9244 9285 9353 9436 9514 9562
2178.6855 9564 9523 9459 9397 9353 9329 9317 9307 9295 9286 9288 9303 9330
2184.9531 9356 9371 9369 9351 9325 9301 9289 9289 9299 9312 9321 9321 9312
2191.2205 9300 9287 9277 9269 9263 9262 9269 9285 9304 9318 9316 9297 9267
2197.4880 9239 9225 9227 9239 9251 9258 9257 9255 9257 9263 9269 9268 9256
2203.7556 9232 9201 9171 9147 9134 9130 9135 9146 9161 9176 9192 9210 9229
2210.0232 9249 9267 9279 9283 9278 9267 9255 9242 9228 9210 9190 9171 9159
2216.2905 9158 9169 9187 9208 9224 9235 9243 9249 9255 9261 9264 9264 9261
2222.5581 9255 9246 9234 9221 9210 9203 9202 9208 9217 9226 9229 9223 9210
2228.8257 9192 9177 9171 9176 9193 9216 9237 9249 9250 9240 9223 9206 9190
2235.0933 9178 9169 9163 9159 9160 9168 9183 9203 9221 9232 9232 9220 9201
2241.3606 9183 9171 9165 9162 9158 9151 9144 9140 9141 9146 9152 9155 9156
2247.6282 9159 9166 9178 9191 9199 9199 9193 9185 9179 9175 9172 9165 9154
2253.8958 9141 9129 9123 9125 9133 9142 9149 9151 9148 9144 9141 9142 9147
2260.1633 9155 9166 9176 9185 9192 9194 9190 9182 9171 9163 9159 9160 9165
2266.4307 9170 9171 9168 9164 9161 9158 9156 9152 9145 9139 9135 9137 9145
2272.6982 9156 9163 9164 9158 9148 9138 9131 9129 9129 9131 9134 9138 9142
2278.9658 9146 9148 9145 9138 9128 9119 9115 9118 9124 9132 9138 9140 9138
2285.2334 9136 9135 9136 9137 9139 9140 9140 9141 9141 9141 9138 9134 9128
2291.5007 9122 9119 9118 9119 9122 9126 9129 9133 9135 9136 9136 9134 9133
2297.7683 9133 9135 9136 9137 9134 9129 9123 9117 9115 9117 9123 9132 9142
2304.0359 9149 9154 9154 9152 9148 9144 9140 9137 9136 9136 9138 9142 9147
2310.3035 9154 9162 9172 9181 9189 9194 9195 9193 9190 9189 9192 9198 9208
2316.5708 9217 9226 9231 9235 9237 9238 9240 9241 9242 9245 9250 9258 9269
2322.8384 9280 9291 9302 9311 9322 9333 9344 9355 9364 9368 9368 9364 9359
2329.1060 9357 9359 9369 9383 9402 9421 9436 9446 9450 9449 9446 9446 9450
2335.3735 9457 9465 9471 9472 9469 9465 9464 9468 9475 9483 9490 9493 9491
2341.6409 9485 9480 9476 9474 9473 9469 9460 9443 9420 9393 9367 9343 9323
2347.9084 9308 9295 9287 9283 9287 9300 9323 9356 9393 9429 9461 9486 9506
2354.1760 9522 9537 9554 9575 9600 9629 9657 9678 9690 9693 9692 9692 9697
2360.4436 9702 9703 9694 9677 9658 9644 9639 9641 9639 9625 9596 9555 9511
2366.7109 9474 9451 9444 9449 9457 9460 9453 9434 9407 9378 9351 9328 9308
2372.9785 9288 9270 9254 9242 9234 9227 9218 9207 9192 9175 9160 9148 9139
2379.2461 9135 9132 9130 9127 9124 9120 9116 9113 9110 9108 9107 9107 9107
2385.5137 9108 9107 9105 9103 9099 9095 9092 9090 9091 9095 9100 9104 9107
2391.7810 9107 9104 9100 9097 9095 9095 9096 9098 9100 9102 9103 9106 9109
2398.0486 9111 9113 9112 9110 9105 9099 9095 9092 9091 9093 9095 9096 9096
2404.3162 9093 9092 9092 9094 9097 9100 9100 9097 9092 9087 9084 9085 9088
2410.5837 9093 9097 9099 9100 9099 9097 9096 9096 9097 9100 9102 9102 9102
2416.8511 9100 9098 9098 9099 9101 9104 9107 9108 9107 9106 9107 9109 9112
2423.1187 9117 9119 9119 9116 9112 9107 9105 9106 9110 9115 9118 9120 9119
2429.3862 9115 9111 9107 9103 9099 9096 9094 9094 9097 9101 9105 9107 9107
2435.6538 9106 9104 9103 9105 9107 9110 9110 9109 9107 9104 9102 9099 9097
2441.9211 9094 9093 9094 9098 9104 9109 9112 9111 9106 9101 9097 9095 9094
2448.1887 9093 9093 9093 9092 9093 9093 9092 9092 9091 9091 9093 9096 9098
2454.4563 9100 9099 9097 9094 9091 9088 9086 9085 9087 9090 9094 9096 9096
2460.7239 9092 9085 9080 9076 9077 9082 9088 9095 9100 9103 9104 9104 9103
2466.9912 9103 9102 9101 9098 9094 9089 9085 9081 9080 9081 9084 9089 9095
2473.2588 9101 9107 9111 9114 9114 9113 9109 9104 9099 9094 9091 9090 9090
2479.5264 9092 9095 9098 9101 9104 9107 9109 9110 9110 9107 9103 9099 9098
2485.7939 9099 9102 9105 9105 9104 9100 9096 9091 9088 9086 9085 9086 9088
2492.0613 9092 9095 9098 9099 9099 9099 9099 9100 9101 9102 9103 9105 9106
2498.3289 9108 9110 9112 9113 9113 9114 9114 9113 9110 9104 9096 9087 9080
2504.5964 9077 9079 9085 9092 9099 9104 9105 9104 9103 9103 9104 9106 9106
2510.8640 9105 9101 9096 9091 9088 9086 9086 9086 9085 9082 9080 9078 9077
2517.1313 9079 9082 9086 9089 9090 9088 9085 9082 9081 9082 9085 9090 9095
2523.3989 9101 9107 9113 9117 9119 9119 9118 9116 9115 9115 9115 9114 9112
2529.6665 9108 9103 9096 9089 9085 9083 9084 9088 9093 9100 9107 9113 9118
2535.9341 9120 9120 9118 9116 9115 9114 9113 9110 9106 9101 9097 9097 9099
2542.2014 9102 9103 9103 9101 9099 9099 9101 9104 9106 9106 9103 9099 9095
2548.4690 9094 9094 9096 9099 9102 9105 9107 9108 9108 9108 9109 9111 9113
2554.7366 9116 9119 9120 9121 9121 9121 9121 9122 9123 9123 9122 9121 9119
2561.0042 9117 9115 9112 9110 9109 9109 9112 9117 9124 9130 9134 9135 9133
2567.2715 9129 9125 9120 9115 9110 9104 9098 9094 9093 9095 9100 9104 9108
2573.5391 9109 9110 9111 9112 9114 9113 9110 9103 9095 9088 9085 9086 9090
2579.8066 9094 9098 9100 9102 9103 9105 9107 9108 9108 9106 9103 9100 9097
2586.0742 9094 9092 9091 9091 9093 9096 9099 9099 9098 9096 9094 9094 9097
2592.3418 9100 9105 9109 9113 9115 9116 9115 9111 9105 9100 9097 9098 9101
2598.6091 9104 9106 9105 9101 9098 9097 9098 9101 9103 9105 9104 9102 9100
2604.8767 9099 9100 9102 9103 9103 9102 9100 9097 9094 9091 9090 9090 9092
2611.1443 9097 9103 9109 9113 9114 9113 9109 9105 9103 9102 9101 9101 9100
2617.4119 9099 9098 9096 9095 9095 9096 9097 9100 9103 9106 9107 9106 9103
2623.6792 9098 9093 9089 9088 9090 9093 9097 9100 9101 9101 9101 9101 9102
2629.9468 9104 9105 9104 9101 9098 9094 9091 9090 9090 9092 9094 9096 9098
2636.2144 9100 9100 9099 9098 9097 9097 9097 9098 9097 9096 9095 9094 9093
2642.4819 9094 9096 9097 9097 9096 9093 9091 9088 9087 9087 9089 9091 9094
2648.7493 9095 9095 9094 9093 9092 9093 9093 9095 9096 9096 9097 9097 9096
2655.0168 9096 9095 9094 9093 9091 9089 9088 9089 9091 9093 9094 9093 9091
2661.2844 9088 9085 9084 9083 9083 9084 9084 9084 9086 9088 9091 9093 9093
2667.5520 9091 9086 9082 9078 9076 9076 9076 9077 9077 9077 9076 9076 9077
2673.8193 9078 9079 9079 9079 9079 9078 9077 9076 9075 9073 9072 9071 9070
2680.0869 9070 9070 9069 9068 9066 9066 9067 9069 9071 9072 9072 9070 9066
2686.3545 9062 9059 9057 9056 9057 9058 9059 9059 9059 9059 9059 9061 9063
2692.6221 9064 9065 9065 9063 9061 9058 9057 9056 9056 9056 9057 9058 9059
2698.8894 9059 9058 9057 9056 9054 9052 9049 9046 9044 9043 9043 9045 9048
2705.1570 9052 9055 9057 9057 9056 9054 9051 9047 9044 9043 9044 9047 9050
2711.4246 9052 9052 9050 9048 9046 9045 9045 9045 9045 9044 9042 9042 9042
2717.6921 9042 9044 9046 9048 9049 9050 9049 9046 9043 9040 9038 9038 9039
2723.9595 9040 9041 9040 9039 9037 9035 9032 9031 9030 9031 9032 9033 9033
2730.2271 9033 9033 9035 9037 9039 9041 9042 9043 9044 9045 9046 9046 9044
2736.4946 9041 9038 9036 9037 9038 9041 9043 9044 9044 9044 9043 9044 9046
2742.7622 9049 9051 9051 9049 9046 9043 9041 9039 9039 9039 9038 9037 9036
2749.0295 9034 9033 9032 9032 9033 9035 9036 9035 9033 9029 9025 9023 9022
2755.2971 9022 9023 9025 9025 9026 9025 9025 9026 9026 9025 9024 9022 9020
2761.5647 9018 9018 9018 9020 9021 9021 9021 9020 9018 9018 9018 9020 9021
2767.8323 9023 9023 9024 9023 9022 9020 9018 9016 9015 9015 9016 9017 9017
2774.0996 9017 9016 9015 9016 9018 9019 9020 9020 9018 9015 9013 9012 9013
2780.3672 9016 9019 9021 9020 9018 9015 9012 9011 9011 9013 9014 9016 9016
2786.6348 9017 9017 9018 9020 9022 9025 9029 9032 9035 9038 9040 9043 9047
2792.9023 9052 9058 9064 9068 9071 9073 9075 9076 9077 9077 9076 9077 9078
2799.1697 9081 9085 9089 9093 9096 9099 9101 9103 9104 9105 9107 9108 9110
2805.4373 9112 9114 9116 9116 9116 9114 9111 9108 9105 9104 9104 9106 9109
2811.7048 9112 9114 9114 9112 9110 9108 9107 9107 9108 9110 9111 9113 9116
2817.9724 9119 9123 9126 9127 9126 9123 9118 9113 9109 9106 9105 9104 9103
2824.2397 9103 9104 9106 9110 9114 9119 9123 9125 9126 9126 9126 9126 9127
2830.5073 9128 9129 9130 9131 9131 9131 9133 9137 9142 9149 9158 9165 9173
2836.7749 9179 9185 9189 9191 9190 9185 9177 9168 9161 9157 9156 9157 9160
2843.0425 9162 9162 9161 9159 9159 9159 9161 9164 9168 9172 9175 9178 9180
2849.3098 9181 9182 9185 9188 9192 9196 9200 9203 9205 9207 9210 9214 9220
2855.5774 9228 9235 9242 9249 9255 9260 9264 9267 9267 9266 9263 9259 9255
2861.8450 9252 9250 9248 9246 9245 9244 9243 9243 9243 9245 9247 9251 9255
2868.1125 9258 9263 9267 9272 9275 9278 9278 9277 9275 9272 9270 9268 9266
2874.3799 9264 9261 9256 9251 9245 9237 9229 9220 9211 9202 9193 9184 9177
2880.6475 9172 9170 9170 9171 9173 9173 9172 9169 9165 9163 9161 9162 9165
2886.9150 9168 9172 9176 9180 9185 9190 9198 9207 9215 9223 9231 9237 9245
2893.1826 9253 9262 9269 9272 9270 9265 9257 9251 9248 9246 9244 9241 9235
2899.4500 9230 9224 9221 9219 9218 9217 9215 9214 9211 9209 9206 9202 9199
2905.7175 9197 9197 9200 9205 9211 9216 9221 9224 9224 9224 9222 9220 9218
2911.9851 9215 9211 9206 9201 9196 9193 9191 9191 9191 9191 9190 9188 9185
2918.2527 9182 9178 9175 9173 9173 9174 9177 9179 9181 9181 9180 9178 9175
2924.5200 9175 9175 9177 9179 9179 9178 9175 9172 9172 9173 9175 9177 9178
2930.7876 9178 9179 9179 9180 9180 9179 9177 9175 9172 9169 9167 9164 9163
2937.0552 9163 9164 9165 9166 9167 9168 9170 9173 9177 9180 9183 9185 9186
2943.3228 9186 9185 9183 9179 9174 9169 9166 9166 9167 9170 9174 9178 9183
2949.5901 9188 9195 9202 9211 9220 9228 9235 9240 9242 9243 9241 9238 9234
2955.8577 9229 9224 9218 9214 9211 9211 9213 9215 9216 9212 9205 9194 9183
2962.1252 9173 9165 9158 9152 9145 9136 9125 9114 9103 9094 9086 9078 9071
2968.3928 9063 9054 9045 9039 9035 9034 9036 9040 9043 9045 9047 9047 9047
2974.6602 9046 9043 9040 9037 9033 9030 9028 9025 9022 9017 9009 9000 8990
2980.9277 8981 8972 8964 8957 8950 8945 8939 8934 8930 8927 8923 8920 8916
2987.1953 8912 8909 8906 8904 8901 8898 8896 8895 8897 8899 8901 8902 8901
2993.4629 8899 8897 8895 8895 8896 8897 8899 8900 8900 8899 8899 8899 8897
2999.7302 8896 8893 8892 8891 8891 8892 8890 8887 8880 8872 8864 8858 8853
3005.9978 8848 8845 8841 8838 8837 8836 8836 8836 8835 8833 8829 8826 8824
3012.2654 8823 8823 8824 8824 8821 8815 8807 8798 8791 8788 8789 8795 8802
3018.5330 8810 8815 8817 8817 8817 8818 8821 8826 8830 8831 8830 8826 8820
3024.8003 8815 8811 8808 8807 8807 8808 8808 8809 8809 8809 8807 8805 8803
3031.0679 8800 8799 8799 8800 8802 8804 8805 8805 8802 8798 8794 8791 8791
3037.3354 8794 8799 8805 8810 8812 8813 8811 8807 8803 8798 8795 8794 8795
3043.6030 8799 8803 8805 8804 8800 8794 8787 8781 8778 8777 8777 8778 8780
3049.8704 8781 8782 8783 8784 8786 8786 8785 8782 8777 8773 8768 8763 8758
3056.1379 8752 8745 8740 8736 8737 8740 8746 8752 8758 8762 8766 8769 8771
3062.4055 8773 8774 8773 8771 8769 8768 8769 8770 8771 8773 8774 8775 8776
3068.6731 8776 8776 8775 8774 8774 8774 8774 8775 8776 8777 8779 8780 8781
3074.9404 8781 8778 8774 8771 8770 8772 8775 8779 8782 8783 8785 8786 8787
3081.2080 8788 8788 8787 8786 8783 8780 8777 8773 8768 8764 8760 8758 8756
3087.4756 8757 8759 8762 8766 8769 8770 8768 8764 8757 8750 8745 8742 8740
3093.7432 8739 8738 8738 8739 8742 8746 8750 8751 8750 8747 8742 8736 8731
3100.0105 8726 8723 8721 8722 8723 8725 8726 8725 8723 8720 8718 8716 8717
3106.2781 8719 8721 8723 8724 8722 8720 8718 8718 8718 8717 8715 8709 8703
3112.5457 8696 8693 8693 8696 8698 8698 8695 8690 8686 8682 8680 8678 8678
3118.8132 8678 8678 8678 8679 8680 8680 8680 8678 8676 8674 8672 8670 8668
3125.0806 8664 8660 8655 8650 8646 8642 8640 8638 8637 8635 8634 8632 8629
3131.3481 8626 8624 8624 8626 8629 8632 8634 8637 8639 8641 8643 8642 8638
3137.6157 8632 8623 8616 8610 8608 8608 8610 8613 8614 8614 8612 8610 8606
3143.8833 8604 8603 8605 8607 8610 8611 8611 8610 8609 8610 8613 8617 8621
3150.1506 8624 8625 8624 8623 8621 8621 8621 8623 8627 8631 8638 8646 8654
3156.4182 8661 8667 8670 8671 8671 8669 8668 8666 8666 8668 8673 8681 8692
3162.6858 8702 8711 8719 8725 8730 8735 8739 8741 8741 8741 8740 8742 8745
3168.9534 8750 8756 8762 8768 8774 8780 8787 8795 8802 8810 8818 8825 8830
3175.2207 8834 8835 8836 8836 8838 8841 8848 8858 8869 8879 8887 8893 8896
3181.4883 8898 8900 8904 8909 8912 8913 8913 8913 8915 8921 8930 8940 8949
3187.7559 8955 8960 8964 8968 8971 8973 8975 8976 8980 8986 8995 9005 9013
3194.0234 9020 9024 9027 9030 9033 9035 9037 9039 9041 9044 9048 9052 9057
3200.2908 9062 9067 9073 9077 9080 9081 9080 9079 9081 9086 9094 9103 9108
3206.5583 9109 9107 9102 9098 9095 9096 9098 9101 9104 9107 9108 9110 9112
3212.8259 9114 9118 9122 9127 9133 9137 9141 9142 9142 9142 9141 9142 9145
3219.0935 9150 9155 9159 9160 9159 9157 9153 9151 9149 9148 9149 9152 9156
3225.3608 9161 9166 9170 9174 9177 9180 9183 9186 9190 9193 9194 9193 9190
3231.6284 9187 9187 9189 9195 9201 9207 9210 9211 9209 9208 9208 9212 9217
3237.8960 9224 9232 9238 9242 9245 9247 9249 9251 9255 9259 9262 9263 9262
3244.1636 9258 9254 9251 9251 9253 9257 9263 9268 9272 9274 9275 9274 9274
3250.4309 9274 9277 9281 9287 9292 9297 9299 9300 9299 9296 9293 9290 9288
3256.6985 9288 9291 9294 9299 9303 9304 9304 9302 9301 9301 9301 9301 9300
3262.9661 9298 9297 9298 9301 9306 9310 9311 9308 9303 9297 9294 9293 9294
3269.2336 9294 9294 9293 9292 9290 9290 9291 9292 9294 9296 9298 9298 9298
3275.5010 9296 9292 9286 9279 9272 9267 9267 9270 9276 9281 9283 9280 9275
3281.7686 9269 9263 9259 9255 9253 9251 9251 9252 9253 9254 9254 9252 9249
3288.0361 9247 9247 9247 9248 9250 9250 9248 9245 9241 9239 9238 9238 9240
3294.3037 9242 9242 9240 9237 9234 9229 9224 9219 9215 9211 9210 9211 9214
3300.5710 9217 9219 9218 9213 9205 9196 9188 9183 9181 9182 9186 9190 9192
3306.8386 9190 9185 9176 9167 9159 9153 9151 9151 9152 9152 9151 9148 9146
3313.1062 9143 9141 9140 9138 9135 9133 9130 9129 9130 9131 9132 9130 9125
3319.3738 9117 9106 9094 9083 9073 9065 9060 9057 9058 9059 9061 9061 9057
3325.6411 9050 9041 9031 9023 9017 9014 9012 9011 9009 9005 8999 8991 8984
3331.9087 8978 8973 8968 8962 8953 8941 8929 8917 8908 8901 8897 8895 8893
3338.1763 8891 8888 8885 8880 8875 8868 8861 8853 8845 8840 8836 8834 8833
3344.4438 8831 8829 8827 8825 8822 8820 8819 8818 8818 8817 8815 8812 8807
3350.7112 8800 8793 8788 8786 8786 8787 8789 8790 8791 8792 8794 8797 8802
3356.9788 8806 8809 8810 8809 8809 8810 8814 8820 8827 8833 8838 8842 8845
3363.2463 8850 8857 8867 8879 8892 8907 8922 8938 8952 8965 8976 8986 8995
3369.5139 9004 9015 9029 9047 9068 9092 9118 9142 9164 9182 9197 9211 9225
3375.7813 9240 9257 9274 9292 9309 9324 9337 9349 9360 9373 9388 9406 9425
3382.0488 9444 9461 9475 9485 9492 9498 9505 9513 9522 9531 9541 9550 9559
3388.3164 9569 9580 9590 9598 9602 9602 9601 9601 9605 9613 9623 9632 9636
3394.5840 9637 9634 9630 9628 9629 9633 9639 9646 9655 9662 9667 9669 9667
3400.8513 9663 9661 9661 9664 9668 9671 9670 9666 9662 9659 9659 9662 9667
3407.1189 9674 9681 9686 9690 9691 9688 9684 9679 9675 9673 9673 9675 9678
3413.3865 9681 9684 9686 9685 9682 9676 9670 9666 9664 9665 9668 9669 9669
3419.6541 9666 9661 9656 9654 9654 9657 9659 9659 9657 9651 9645 9640 9638
3425.9214 9639 9642 9647 9649 9647 9642 9634 9626 9620 9616 9614 9613 9613
3432.1890 9614 9617 9620 9623 9627 9630 9633 9635 9637 9637 9635 9632 9626
3438.4565 9619 9610 9601 9592 9585 9580 9580 9582 9586 9590 9594 9596 9597
3444.7241 9597 9596 9594 9592 9590 9589 9587 9585 9581 9577 9573 9572 9572
3450.9915 9573 9573 9572 9570 9567 9564 9562 9562 9564 9566 9571 9575 9580
3457.2590 9583 9584 9583 9580 9575 9571 9567 9566 9566 9567 9568 9567 9565
3463.5266 9562 9557 9552 9548 9544 9541 9539 9537 9536 9537 9537 9537 9535
3469.7942 9533 9531 9530 9531 9533 9535 9537 9538 9538 9539 9540 9542 9543
3476.0615 9541 9536 9530 9522 9517 9513 9511 9510 9507 9502 9496 9492 9490
3482.3291 9491 9494 9498 9500 9499 9497 9494 9491 9489 9490 9495 9502 9509
3488.5967 9515 9517 9517 9514 9511 9508 9505 9503 9500 9497 9495 9493 9491
3494.8643 9489 9487 9485 9484 9484 9484 9485 9486 9487 9486 9485 9483 9481
3501.1316 9479 9478 9479 9481 9482 9483 9483 9480 9477 9474 9473 9473 9476
3507.3992 9480 9484 9485 9485 9483 9480 9477 9474 9472 9472 9475 9480 9486
3513.6667 9492 9496 9498 9500 9501 9503 9504 9503 9499 9492 9486 9481 9479
3519.9343 9481 9484 9487 9488 9487 9484 9478 9470 9464 9459 9457 9458 9459
3526.2017 9458 9455 9449 9444 9441 9442 9446 9451 9454 9455 9454 9451 9449
3532.4692 9449 9450 9452 9452 9450 9446 9442 9438 9436 9435 9433 9430 9426
3538.7368 9421 9418 9419 9422 9426 9429 9428 9423 9415 9407 9401 9398 9398
3545.0044 9399 9400 9399 9400 9402 9407 9413 9417 9419 9417 9413 9407 9401
3551.2717 9398 9397 9399 9401 9404 9405 9404 9402 9398 9395 9392 9391 9391
3557.5393 9391 9392 9392 9393 9394 9394 9393 9392 9390 9390 9390 9391 9391
3563.8069 9387 9380 9370 9358 9350 9348 9354 9367 9380 9390 9394 9394 9390
3570.0745 9386 9383 9382 9380 9379 9376 9374 9373 9375 9379 9385 9391 9396
3576.3420 9399 9400 9400 9400 9399 9399 9400 9400 9399 9395 9388 9381 9375
3582.6094 9372 9372 9373 9374 9374 9371 9365 9357 9349 9343 9343 9349 9359
3588.8770 9370 9378 9381 9381 9378 9376 9376 9379 9384 9388 9389 9386 9382
3595.1445 9378 9376 9376 9375 9372 9366 9358 9350 9344 9343 9348 9356 9367
3601.4121 9378 9388 9397 9402 9403 9397 9386 9372 9356 9342 9334 9333 9340
3607.6794 9352 9367 9380 9387 9387 9380 9369 9357 9345 9339 9340 9348 9361
3613.9470 9372 9377 9374 9367 9357 9348 9344 9344 9347 9351 9355 9359 9365
3620.2146 9372 9377 9380 9381 9378 9375 9371 9370 9371 9376 9382 9386 9385
3626.4822 9377 9363 9348 9341 9351 9377 9402 9412 9409 9397 9382 9366 9352
3632.7495 9343 9340 9343 9349 9353 9354 9351 9347 9345 9347 9355 9365 9375
3639.0171 9380 9379 9372 9361 9349 9341 9337 9339 9343 9347 9346 9339 9326
3645.2847 9309 9291 9276 9271 9276 9287 9296 9302 9308 9320 9340 9360 9374
3651.5522 9377 9372 9363 9352 9340 9330 9321 9316 9318 9328 9342 9354 9359
3657.8196 9359 9354 9349 9346 9345 9347 9351 9355 9358 9359 9360 9360 9362
3664.0872 9363 9363 9359 9352 9342 9333 9326 9325 9328 9332 9334 9333 9332
3670.3547 9335 9341 9347 9347 9342 9330 9314 9295 9280 9283 9311 9345 9363
3676.6223 9363 9352 9338 9325 9318 9318 9325 9334 9342 9347 9349 9349 9348
3682.8896 9346 9345 9343 9341 9338 9333 9324 9313 9301 9295 9300 9315 9333
3689.1572 9346 9351 9351 9351 9351 9353 9354 9356 9358 9360 9363 9365 9366
3695.4248 9366 9363 9359 9355 9352 9349 9347 9346 9345 9345 9349 9357 9367
3701.6924 9376 9380 9379 9374 9369 9367 9366 9366 9364 9359 9351 9342 9334
3707.9597 9329 9325 9322 9316 9308 9303 9305 9318 9338 9353 9357 9350 9339
3714.2273 9330 9327 9330 9336 9340 9341 9339 9337 9338 9342 9346 9346 9339
3720.4949 9328 9317 9310 9312 9320 9329 9335 9335 9331 9328 9328 9336 9349
3726.7625 9363 9376 9383 9385 9383 9378 9370 9362 9355 9350 9345 9335 9320
3733.0298 9301 9282 9272 9275 9293 9316 9329 9331 9328 9325 9325 9328 9329
3739.2974 9330 9329 9328 9329 9328 9323 9311 9292 9271 9257 9268 9302 9330
3745.5649 9340 9336 9326 9315 9305 9300 9300 9304 9309 9312 9312 9312 9315
3751.8325 9323 9334 9341 9343 9339 9332 9324 9318 9316 9318 9321 9321 9317
3758.0999 9313 9311 9315 9325 9335 9340 9340 9336 9330 9325 9321 9318 9315
3764.3674 9314 9313 9313 9314 9312 9309 9304 9299 9295 9295 9300 9309 9319
3770.6350 9326 9330 9331 9331 9331 9331 9330 9329 9326 9323 9320 9318 9315
3776.9026 9312 9308 9302 9298 9298 9303 9312 9320 9325 9326 9322 9315 9306
3783.1699 9300 9298 9303 9312 9320 9325 9324 9320 9315 9311 9312 9316 9320
3789.4375 9323 9323 9320 9316 9313 9312 9313 9315 9315 9313 9309 9305 9304
3795.7051 9306 9312 9318 9322 9321 9317 9309 9299 9291 9287 9291 9307 9327
3801.9727 9340 9342 9336 9326 9314 9302 9293 9288 9292 9307 9327 9343 9349
3808.2400 9346 9340 9332 9324 9315 9307 9299 9295 9295 9299 9304 9307 9306
3814.5076 9303 9300 9300 9306 9312 9314 9311 9306 9301 9296 9293 9296 9308
3820.7751 9326 9341 9347 9344 9336 9325 9314 9303 9295 9288 9284 9283 9285
3827.0427 9290 9296 9302 9306 9309 9312 9316 9324 9335 9344 9348 9344 9335
3833.3101 9322 9310 9299 9292 9289 9289 9293 9299 9308 9314 9313 9307 9302
3839.5776 9302 9308 9317 9322 9320 9312 9302 9296 9296 9302 9310 9317 9322
3845.8452 9324 9324 9322 9318 9312 9305 9298 9292 9288 9284 9279 9273 9265
3852.1128 9258 9259 9276 9306 9333 9346 9348 9343 9335 9329 9325 9324 9324
3858.3801 9322 9315 9305 9294 9285 9282 9287 9295 9302 9304 9301 9296 9294
3864.6477 9298 9306 9313 9314 9310 9300 9288 9276 9268 9273 9293 9319 9335
3870.9153 9337 9329 9315 9302 9293 9293 9304 9318 9329 9332 9331 9327 9324
3877.1829 9322 9319 9314 9307 9298 9291 9290 9297 9307 9314 9317 9315 9310
3883.4502 9302 9295 9292 9295 9304 9317 9326 9329 9328 9323 9317 9312 9308
3889.7178 9305 9305 9306 9309 9311 9313 9314 9314 9315 9316 9319 9323 9327
3895.9854 9328 9324 9316 9305 9294 9288 9287 9288 9288 9285 9282 9282 9286
3902.2529 9293 9299 9300 9297 9294 9294 9297 9303 9310 9315 9319 9322 9323
3908.5203 9323 9320 9317 9314 9313 9315 9318 9320 9321 9321 9319 9316 9311
3914.7878 9303 9296 9290 9289 9293 9299 9302 9302 9299 9299 9302 9310 9318
3921.0554 9323 9323 9317 9309 9300 9293 9291 9295 9303 9314 9324 9331 9336
3927.3230 9337 9335 9331 9324 9317 9309 9301 9295 9292 9292 9295 9300 9305
3933.5903 9309 9314 9320 9327 9333 9339 9341 9339 9333 9325 9316 9310 9306
3939.8579 9305 9306 9307 9310 9311 9313 9313 9313 9312 9312 9313 9314 9315
3946.1255 9315 9315 9313 9311 9310 9309 9309 9311 9313 9316 9317 9317 9317
3952.3931 9318 9318 9319 9319 9319 9317 9314 9312 9310 9310 9311 9313 9316
3958.6604 9319 9321 9322 9322 9321 9320 9320 9321 9324 9326 9328 9329 9329
3964.9280 9328 9327 9325 9322 9318 9315 9312 9310 9310 9310 9310 9310 9311
3971.1956 9314 9318 9322 9326 9328 9328 9325 9321 9316 9311 9309 9309 9311
3977.4631 9315 9320 9324 9327 9328 9329 9328 9327 9326 9325 9324 9323 9322
3983.7305 9320 9316 9312 9310 9310 9312 9316 9318 9319 9318 9316 9313 9311
3989.9980 9312 9315 9320 9325 9327 9325 9319 9311 9302 9297 9297 9302 9311
3996.2656 9321 9329 9333 9332 9328 9323 9318 9315 9314
##END= 
