##TITLE= STD_FTALILSULFATIAZOLO
##JCAMP-DX= 4.24
##DATA TYPE= INFRARED SPECTRUM
##ORIGIN= JASCO
##OWNER= 
##DATE= 22/03/31
##TIME= 08:50:23
##SPECTROMETER/DATA SYSTEM= 
##RESOLUTION= 
##DELTAX=   0.48211674
##XUNITS= 1/CM
##YUNITS= TRANSMITTANCE
##XFACTOR= 1.00000
##YFACTOR= 0.0001
##FIRSTX=   599.7532
##LASTX=  4000.1226
##NPOINTS=     7054
##FIRSTY=      0.74717
##MAXY=      1.02327
##MINY=      0.31960
##XYDATA= (X++(Y..Y))
599.7532 7472 7374 7314 7293 7311 7359 7424 7490 7540 7558 7541 7492 7424 7356
606.5029 7310 7305 7351 7449 7584 7731 7866 7973 8047 8095 8123 8139 8143 8136
613.2525 8119 8096 8068 8033 7985 7918 7831 7732 7632 7545 7476 7421 7369 7311
620.0021 7241 7156 7058 6949 6833 6708 6569 6412 6233 6031 5815 5597 5396 5229
626.7518 5108 5041 5026 5050 5091 5117 5100 5022 4882 4695 4483 4264 4051 3846
633.5014 3653 3477 3330 3230 3196 3239 3358 3543 3774 4029 4288 4527 4730 4881
640.2510 4976 5017 5020 5008 5007 5034 5095 5181 5272 5347 5388 5386 5347 5282
647.0007 5209 5145 5104 5093 5110 5148 5196 5248 5297 5345 5390 5433 5471 5503
653.7503 5530 5554 5573 5585 5584 5564 5520 5456 5376 5288 5199 5110 5020 4927
660.4999 4827 4722 4619 4528 4458 4414 4399 4409 4436 4471 4505 4533 4551 4560
667.2496 4582 4680 4923 5228 5462 5631 5782 5944 6129 6338 6564 6794 7014 7214
673.9992 7383 7517 7614 7681 7727 7765 7801 7838 7874 7904 7923 7929 7924 7912
680.7488 7901 7899 7909 7933 7972 8019 8067 8104 8122 8114 8086 8046 8002 7960
687.4985 7914 7855 7774 7668 7547 7424 7314 7222 7145 7072 6990 6890 6770 6639
694.2481 6509 6397 6313 6264 6250 6267 6306 6358 6412 6455 6479 6478 6453 6407
700.9977 6345 6275 6202 6133 6070 6020 5987 5975 5984 6013 6060 6120 6191 6269
707.7474 6356 6453 6561 6679 6803 6928 7041 7128 7178 7186 7155 7098 7032 6973
714.4970 6933 6915 6914 6922 6928 6924 6904 6871 6832 6797 6780 6792 6835 6903
721.2466 6987 7076 7166 7255 7339 7415 7476 7516 7532 7527 7505 7471 7426 7371
727.9963 7303 7223 7136 7050 6976 6923 6899 6910 6955 7034 7140 7263 7390 7509
734.7459 7606 7675 7712 7718 7699 7666 7630 7601 7591 7609 7660 7747 7868 8017
741.4955 8185 8361 8535 8698 8846 8975 9084 9174 9245 9303 9349 9387 9415 9432
748.2452 9438 9430 9410 9378 9333 9274 9202 9116 9016 8904 8779 8639 8484 8308
754.9948 8107 7875 7607 7305 6981 6659 6376 6173 6083 6121 6282 6543 6871 7230
761.7444 7586 7909 8175 8371 8493 8547 8544 8504 8445 8388 8346 8325 8323 8329
768.4941 8338 8345 8351 8359 8368 8376 8374 8360 8333 8298 8261 8229 8202 8181
775.2437 8162 8144 8124 8101 8075 8043 8005 7962 7917 7875 7837 7805 7778 7755
781.9933 7734 7715 7697 7680 7665 7654 7647 7647 7652 7659 7663 7661 7654 7644
788.7430 7635 7631 7633 7641 7655 7674 7698 7725 7751 7774 7791 7802 7809 7814
795.4926 7822 7836 7855 7878 7900 7916 7921 7917 7906 7896 7891 7892 7898 7906
802.2422 7918 7938 7970 8017 8078 8146 8211 8265 8303 8324 8329 8321 8303 8275
808.9919 8240 8198 8151 8099 8040 7972 7895 7812 7728 7651 7586 7531 7486 7447
815.7415 7411 7377 7345 7313 7279 7241 7200 7159 7120 7088 7063 7040 7016 6989
822.4911 6957 6918 6869 6804 6716 6604 6472 6332 6206 6116 6082 6114 6214 6373
829.2408 6573 6796 7023 7239 7435 7608 7756 7882 7988 8076 8146 8199 8236 8259
835.9904 8272 8277 8276 8270 8259 8240 8216 8188 8163 8143 8132 8129 8132 8138
842.7401 8141 8139 8132 8120 8106 8093 8082 8077 8079 8089 8101 8112 8114 8100
849.4897 8068 8018 7948 7857 7741 7598 7433 7260 7101 6979 6913 6909 6964 7067
856.2393 7205 7367 7541 7719 7891 8046 8178 8282 8362 8426 8485 8548 8620 8700
862.9890 8785 8868 8946 9018 9084 9145 9200 9246 9281 9302 9312 9316 9320 9327
869.7386 9341 9359 9376 9388 9392 9388 9381 9373 9366 9362 9359 9354 9347 9338
876.4882 9328 9317 9307 9298 9290 9282 9275 9268 9261 9255 9249 9244 9240 9235
883.2379 9228 9219 9207 9193 9180 9170 9162 9158 9155 9151 9146 9139 9134 9133
889.9875 9137 9144 9155 9166 9177 9188 9199 9209 9217 9223 9226 9226 9224 9218
896.7371 9205 9184 9152 9110 9061 9008 8955 8903 8853 8807 8768 8738 8719 8710
903.4868 8711 8721 8740 8766 8798 8831 8861 8885 8904 8919 8933 8950 8971 8995
910.2364 9021 9047 9069 9086 9097 9103 9106 9107 9104 9097 9084 9067 9046 9026
916.9860 9007 8990 8973 8955 8932 8906 8875 8841 8805 8767 8727 8683 8633 8574
923.7357 8506 8432 8353 8274 8194 8113 8028 7938 7840 7736 7626 7512 7392 7269
930.4853 7142 7016 6893 6780 6677 6586 6507 6438 6377 6324 6278 6238 6204 6174
937.2349 6148 6128 6113 6104 6099 6098 6100 6104 6111 6121 6137 6161 6195 6242
943.9846 6303 6378 6464 6560 6662 6768 6879 6997 7122 7255 7393 7534 7672 7805
950.7342 7933 8054 8169 8276 8374 8463 8543 8618 8688 8756 8821 8879 8928 8967
957.4838 8999 9027 9055 9084 9113 9139 9161 9179 9197 9215 9236 9259 9282 9304
964.2335 9327 9351 9377 9405 9434 9462 9487 9508 9525 9539 9551 9560 9569 9578
970.9831 9587 9597 9609 9623 9639 9656 9670 9680 9686 9689 9692 9699 9710 9724
977.7327 9738 9751 9760 9764 9764 9762 9759 9757 9757 9760 9765 9771 9777 9781
984.4824 9785 9790 9796 9802 9809 9816 9821 9824 9825 9825 9825 9825 9826 9829
991.2320 9833 9836 9837 9835 9830 9825 9820 9818 9819 9824 9831 9839 9846 9852
997.9816 9856 9861 9867 9875 9884 9892 9899 9903 9904 9904 9902 9900 9899 9900
1004.7313 9904 9909 9915 9918 9917 9910 9896 9878 9857 9835 9816 9803 9795
1010.9988 9791 9788 9783 9774 9759 9741 9720 9700 9679 9660 9640 9621 9606
1017.2663 9597 9597 9608 9629 9656 9686 9714 9739 9760 9778 9795 9812 9828
1023.5338 9843 9856 9867 9876 9881 9883 9881 9877 9872 9869 9869 9870 9871
1029.8014 9871 9868 9863 9857 9852 9847 9842 9838 9834 9831 9828 9825 9820
1036.0688 9811 9797 9779 9759 9739 9723 9715 9714 9719 9728 9736 9742 9746
1042.3364 9750 9756 9765 9775 9785 9793 9798 9801 9803 9803 9801 9794 9781
1048.6039 9764 9746 9730 9717 9708 9700 9693 9685 9676 9664 9650 9632 9611
1054.8715 9588 9564 9539 9516 9493 9473 9454 9434 9413 9387 9357 9324 9291
1061.1389 9259 9228 9196 9160 9118 9068 9010 8945 8875 8801 8723 8640 8552
1067.4065 8457 8354 8241 8116 7979 7830 7670 7505 7339 7181 7038 6916 6816
1073.6740 6737 6677 6639 6627 6649 6711 6816 6957 7126 7306 7484 7645 7782
1079.9415 7890 7968 8019 8049 8060 8060 8051 8035 8012 7978 7929 7862 7773
1086.2090 7662 7531 7385 7228 7062 6890 6714 6535 6356 6180 6010 5851 5707
1092.4766 5584 5489 5432 5422 5467 5572 5741 5969 6247 6561 6894 7225 7539
1098.7440 7823 8071 8280 8452 8591 8701 8786 8849 8894 8923 8936 8936 8923
1105.0116 8899 8865 8824 8774 8718 8658 8594 8530 8468 8406 8344 8281 8215
1111.2791 8145 8070 7989 7902 7804 7697 7580 7455 7327 7202 7086 6985 6904
1117.5466 6846 6812 6802 6816 6849 6899 6960 7029 7104 7186 7274 7366 7458
1123.8141 7543 7614 7663 7687 7687 7671 7648 7629 7625 7640 7676 7730 7797
1130.0817 7870 7939 7997 8035 8048 8034 7995 7935 7858 7773 7685 7601 7525
1136.3491 7464 7416 7380 7347 7309 7253 7173 7062 6920 6749 6555 6347 6136
1142.6167 5935 5758 5613 5505 5430 5377 5336 5298 5257 5216 5180 5156 5153
1148.8842 5176 5230 5317 5439 5598 5791 6018 6275 6556 6852 7153 7448 7726
1155.1517 7981 8207 8402 8564 8690 8778 8827 8839 8820 8783 8742 8711 8697
1161.4192 8703 8723 8750 8777 8801 8824 8854 8895 8952 9026 9113 9206 9298
1167.6868 9381 9451 9506 9547 9578 9601 9619 9633 9644 9652 9659 9663 9667
1173.9542 9669 9671 9670 9668 9663 9656 9647 9637 9623 9606 9582 9551 9511
1180.2218 9462 9403 9337 9267 9205 9162 9148 9168 9217 9285 9359 9425 9477
1186.4893 9511 9532 9543 9547 9548 9547 9543 9537 9529 9519 9509 9498 9487
1192.7568 9474 9460 9446 9431 9417 9404 9393 9383 9373 9361 9349 9335 9321
1199.0243 9307 9294 9280 9266 9251 9234 9215 9196 9177 9159 9144 9131 9119
1205.2919 9107 9093 9076 9058 9037 9016 8995 8974 8954 8933 8912 8888 8863
1211.5593 8838 8812 8788 8764 8742 8717 8691 8661 8629 8596 8563 8529 8495
1217.8269 8459 8421 8380 8335 8287 8234 8177 8114 8046 7974 7899 7821 7742
1224.0944 7659 7574 7484 7392 7298 7204 7112 7022 6937 6855 6777 6706 6641
1230.3619 6584 6537 6497 6465 6438 6415 6395 6377 6362 6351 6344 6342 6344
1236.6294 6352 6366 6387 6415 6449 6487 6529 6570 6611 6648 6681 6709 6730
1242.8970 6746 6758 6765 6770 6773 6776 6779 6783 6792 6806 6829 6861 6906
1249.1644 6964 7035 7117 7210 7310 7415 7524 7634 7743 7849 7950 8047 8137
1255.4320 8221 8298 8367 8427 8476 8516 8547 8572 8590 8603 8611 8614 8611
1261.6995 8602 8585 8562 8530 8488 8436 8377 8310 8237 8157 8066 7956 7825
1267.9670 7672 7504 7335 7177 7043 6940 6871 6837 6837 6868 6929 7016 7124
1274.2345 7247 7373 7494 7598 7678 7730 7752 7744 7707 7645 7561 7461 7352
1280.5021 7242 7138 7047 6975 6924 6895 6886 6889 6896 6897 6883 6848 6789
1286.7695 6705 6601 6486 6371 6269 6193 6151 6151 6195 6282 6405 6553 6716
1293.0371 6883 7044 7192 7321 7430 7519 7591 7651 7706 7762 7824 7893 7968
1299.3046 8049 8130 8209 8282 8350 8410 8463 8509 8550 8587 8621 8654 8688
1305.5721 8724 8762 8801 8838 8871 8897 8916 8927 8930 8927 8917 8901 8880
1311.8396 8855 8827 8798 8771 8745 8721 8699 8679 8657 8633 8606 8576 8544
1318.1072 8511 8476 8442 8407 8374 8341 8308 8275 8242 8207 8172 8137 8101
1324.3746 8067 8037 8011 7992 7979 7971 7967 7964 7961 7957 7953 7949 7944
1330.6422 7939 7934 7927 7918 7908 7897 7885 7873 7861 7850 7841 7835 7833
1336.9097 7835 7841 7850 7865 7888 7923 7967 8018 8068 8115 8159 8200 8243
1343.1772 8290 8339 8391 8443 8494 8543 8592 8638 8683 8725 8765 8801 8835
1349.4447 8865 8891 8914 8934 8950 8964 8976 8986 8995 9003 9010 9016 9020
1355.7123 9024 9026 9029 9033 9039 9048 9062 9079 9100 9123 9145 9164 9179
1361.9797 9193 9206 9222 9240 9257 9271 9280 9284 9285 9284 9282 9279 9277
1368.2473 9274 9272 9268 9264 9258 9251 9242 9231 9218 9202 9183 9161 9139
1374.5148 9119 9103 9089 9077 9063 9045 9024 8997 8967 8933 8897 8860 8821
1380.7823 8780 8738 8693 8647 8598 8546 8492 8436 8378 8319 8259 8196 8131
1387.0498 8066 8006 7957 7916 7880 7846 7812 7777 7745 7715 7688 7663 7639
1393.3174 7615 7596 7583 7581 7588 7596 7600 7600 7598 7594 7594 7599 7608
1399.5848 7617 7620 7617 7607 7593 7576 7556 7536 7520 7515 7534 7584 7665
1405.8524 7769 7887 8011 8141 8273 8398 8510 8601 8670 8721 8759 8787 8807
1412.1199 8821 8829 8833 8834 8834 8834 8835 8839 8844 8851 8856 8859 8864
1418.3875 8876 8907 8958 9015 9064 9103 9133 9159 9185 9213 9245 9280 9315
1424.6549 9346 9372 9393 9411 9426 9439 9447 9453 9455 9456 9458 9462 9469
1430.9225 9476 9482 9487 9491 9495 9498 9498 9494 9485 9472 9456 9444 9443
1437.1899 9452 9464 9472 9474 9472 9465 9456 9446 9436 9426 9416 9406 9396
1443.4575 9388 9382 9382 9386 9394 9404 9413 9422 9430 9440 9451 9461 9467
1449.7250 9469 9467 9463 9459 9456 9454 9451 9446 9436 9423 9407 9389 9371
1455.9926 9353 9333 9314 9302 9303 9314 9328 9341 9351 9355 9356 9353 9347
1462.2600 9339 9329 9315 9298 9278 9261 9250 9246 9245 9243 9239 9232 9223
1468.5276 9212 9199 9185 9169 9149 9123 9091 9056 9026 9012 9011 9012 9009
1474.7950 9001 8989 8975 8962 8951 8942 8930 8915 8893 8867 8835 8800 8764
1481.0626 8729 8696 8664 8632 8598 8559 8514 8465 8413 8358 8300 8235 8164
1487.3301 8089 8017 7951 7891 7835 7787 7755 7743 7743 7746 7746 7741 7732
1493.5977 7718 7699 7673 7638 7590 7533 7477 7431 7397 7378 7377 7400 7446
1499.8651 7510 7588 7678 7779 7883 7977 8049 8093 8114 8117 8108 8088 8056
1506.1327 8012 7973 7958 7951 7938 7914 7882 7846 7807 7765 7716 7659 7595
1512.4001 7527 7458 7389 7315 7238 7156 7070 6976 6868 6745 6622 6516 6427
1518.6677 6347 6265 6171 6054 5905 5735 5585 5481 5403 5333 5264 5193 5120
1524.9352 5045 4970 4902 4845 4798 4758 4722 4691 4666 4651 4644 4644 4649
1531.2028 4659 4677 4712 4777 4882 5012 5128 5209 5261 5294 5317 5332 5340
1537.4702 5339 5335 5342 5393 5509 5645 5742 5810 5883 5970 6063 6147 6217
1543.7378 6284 6366 6474 6598 6716 6810 6881 6938 6989 7043 7108 7192 7302
1550.0052 7432 7557 7657 7731 7783 7825 7864 7907 7952 7988 8003 7998 7978
1556.2728 7948 7906 7847 7759 7632 7517 7523 7598 7659 7697 7724 7742 7755
1562.5403 7762 7763 7757 7744 7727 7707 7689 7673 7657 7638 7618 7598 7586
1568.8079 7599 7654 7740 7825 7892 7945 7990 8028 8056 8068 8062 8038 7994
1575.0753 7922 7810 7667 7546 7489 7485 7516 7574 7659 7767 7890 8013 8121
1581.3429 8206 8262 8291 8294 8273 8230 8169 8092 8000 7897 7785 7671 7558
1587.6105 7453 7360 7283 7224 7187 7172 7183 7219 7277 7356 7453 7564 7688
1593.8779 7823 7962 8099 8225 8336 8430 8506 8566 8610 8638 8652 8653 8644
1600.1455 8627 8602 8572 8536 8497 8456 8416 8380 8349 8325 8308 8300 8300
1606.4130 8312 8335 8367 8407 8455 8509 8570 8634 8695 8750 8797 8837 8871
1612.6805 8899 8921 8934 8939 8936 8926 8908 8884 8856 8833 8817 8801 8782
1618.9480 8755 8720 8675 8624 8569 8513 8454 8388 8313 8235 8167 8115 8074
1625.2156 8037 7999 7958 7912 7866 7822 7788 7765 7751 7742 7739 7743 7757
1631.4830 7781 7811 7842 7869 7893 7919 7958 8029 8136 8251 8337 8397 8448
1637.7506 8499 8549 8595 8634 8667 8693 8716 8735 8750 8759 8763 8761 8753
1644.0181 8740 8720 8693 8660 8624 8596 8583 8587 8598 8608 8612 8612 8606
1650.2856 8595 8581 8561 8535 8501 8475 8515 8606 8676 8722 8757 8788 8817
1656.5531 8848 8881 8916 8953 8991 9026 9059 9088 9112 9133 9152 9174 9204
1662.8207 9239 9275 9305 9328 9347 9363 9375 9384 9386 9383 9375 9366 9362
1669.0881 9369 9387 9408 9427 9444 9459 9474 9485 9493 9496 9496 9493 9492
1675.3557 9497 9508 9520 9530 9536 9540 9540 9536 9529 9521 9513 9507 9501
1681.6232 9493 9481 9459 9426 9385 9366 9398 9444 9471 9483 9485 9481 9475
1687.8907 9467 9461 9457 9456 9457 9460 9463 9465 9464 9459 9450 9436 9417
1694.1582 9393 9363 9328 9295 9277 9274 9274 9270 9260 9243 9220 9190 9160
1700.4258 9145 9141 9135 9122 9101 9072 9035 8991 8944 8900 8862 8831 8803
1706.6932 8775 8745 8713 8677 8635 8587 8533 8473 8410 8346 8281 8215 8146
1712.9608 8072 7993 7903 7804 7702 7605 7518 7440 7368 7306 7262 7241 7231
1719.2283 7224 7220 7224 7244 7282 7345 7435 7556 7706 7879 8061 8241 8410
1725.4958 8572 8726 8872 9004 9117 9209 9285 9352 9414 9472 9522 9559 9582
1731.7633 9596 9602 9602 9599 9602 9620 9648 9674 9694 9710 9724 9735 9743
1738.0309 9746 9746 9744 9746 9753 9765 9775 9783 9786 9786 9785 9786 9788
1744.2983 9792 9796 9797 9794 9789 9783 9778 9776 9779 9784 9789 9792 9793
1750.5659 9793 9794 9798 9805 9813 9820 9827 9832 9835 9836 9834 9832 9828
1756.8334 9827 9829 9833 9838 9841 9841 9838 9832 9823 9815 9811 9813 9818
1763.1010 9823 9827 9831 9833 9835 9836 9836 9833 9829 9824 9823 9824 9826
1769.3684 9827 9824 9817 9806 9795 9788 9790 9797 9803 9805 9805 9805 9807
1775.6360 9812 9820 9827 9832 9834 9832 9828 9823 9819 9817 9818 9822 9827
1781.9034 9831 9831 9828 9822 9816 9812 9812 9816 9821 9825 9827 9827 9828
1788.1710 9829 9830 9832 9831 9828 9821 9813 9804 9801 9805 9814 9824 9831
1794.4385 9836 9838 9841 9844 9848 9851 9852 9849 9842 9832 9824 9819 9821
1800.7061 9828 9836 9843 9848 9851 9853 9855 9859 9863 9869 9875 9879 9880
1806.9735 9877 9872 9867 9864 9863 9862 9860 9858 9858 9861 9869 9877 9885
1813.2411 9889 9891 9890 9889 9889 9890 9890 9890 9888 9887 9888 9890 9894
1819.5085 9898 9900 9901 9900 9898 9894 9890 9886 9883 9880 9877 9877 9879
1825.7761 9882 9884 9885 9884 9882 9878 9873 9866 9859 9855 9855 9858 9865
1832.0436 9873 9881 9888 9892 9893 9891 9889 9886 9884 9880 9876 9872 9870
1838.3112 9872 9877 9885 9892 9896 9897 9893 9887 9879 9870 9860 9850 9844
1844.5786 9844 9847 9853 9857 9861 9865 9870 9875 9881 9884 9885 9883 9882
1850.8462 9881 9881 9882 9883 9884 9884 9884 9884 9883 9880 9874 9867 9862
1857.1136 9859 9860 9864 9869 9872 9874 9873 9873 9873 9872 9869 9864 9857
1863.3812 9849 9844 9841 9842 9844 9844 9841 9835 9827 9820 9818 9823 9835
1869.6487 9851 9866 9878 9886 9889 9888 9885 9880 9875 9871 9868 9867 9867
1875.9163 9868 9869 9870 9871 9872 9872 9870 9868 9864 9861 9859 9860 9865
1882.1837 9873 9882 9891 9895 9896 9893 9888 9885 9883 9880 9876 9869 9859
1888.4513 9848 9840 9836 9839 9847 9859 9872 9885 9896 9902 9902 9895 9884
1894.7188 9872 9861 9856 9856 9860 9867 9875 9881 9883 9880 9875 9871 9871
1900.9863 9875 9880 9882 9876 9866 9855 9848 9846 9849 9854 9858 9858 9856
1907.2538 9853 9851 9850 9849 9848 9847 9847 9848 9849 9851 9854 9856 9859
1913.5214 9862 9867 9872 9877 9881 9884 9884 9882 9877 9870 9863 9857 9854
1919.7888 9852 9849 9844 9832 9815 9794 9777 9771 9779 9797 9819 9838 9850
1926.0564 9853 9849 9843 9840 9842 9849 9860 9869 9872 9869 9861 9852 9848
1932.3239 9851 9860 9870 9873 9865 9848 9828 9814 9812 9820 9835 9850 9861
1938.5914 9870 9879 9890 9902 9910 9907 9889 9857 9819 9789 9777 9783 9802
1944.8589 9829 9856 9879 9893 9896 9889 9877 9867 9864 9870 9881 9890 9891
1951.1265 9880 9862 9844 9835 9838 9850 9864 9876 9884 9889 9896 9905 9916
1957.3939 9925 9930 9931 9928 9924 9921 9916 9906 9890 9868 9845 9829 9823
1963.6615 9828 9842 9858 9873 9884 9890 9889 9878 9861 9846 9844 9860 9890
1969.9290 9924 9944 9940 9912 9869 9827 9801 9796 9809 9830 9843 9837 9812
1976.1965 9782 9767 9786 9837 9902 9951 9964 9940 9898 9862 9847 9856 9882
1982.4640 9916 9947 9964 9963 9942 9907 9867 9833 9812 9808 9817 9829 9835
1988.7316 9831 9817 9801 9791 9791 9799 9811 9819 9819 9816 9817 9828 9852
1994.9990 9880 9901 9902 9878 9835 9787 9751 9738 9749 9777 9811 9845 9879
2001.2666 9917 9959 10001 10030 10036 10015 9971 9914 9854 9797 9747 9711 9695
2007.5341 9706 9746 9805 9873 9936 9986 10018 10030 10019 9983 9925 9860 9805
2013.8016 9780 9791 9831 9881 9916 9916 9875 9806 9734 9681 9660 9674 9717
2020.0691 9780 9854 9928 9992 10039 10063 10061 10032 9980 9914 9843 9779 9729
2026.3367 9696 9676 9666 9663 9672 9697 9740 9794 9841 9862 9845 9793 9727
2032.6041 9677 9665 9697 9757 9819 9855 9859 9841 9823 9823 9844 9875 9897
2038.8717 9899 9883 9861 9846 9847 9859 9871 9874 9866 9853 9844 9843 9850
2045.1392 9858 9862 9856 9844 9831 9822 9819 9816 9806 9783 9753 9729 9724
2051.4067 9745 9789 9841 9881 9896 9882 9849 9812 9783 9767 9759 9754 9750
2057.6743 9748 9753 9768 9792 9817 9837 9847 9845 9834 9820 9807 9796 9789
2063.9417 9786 9787 9790 9795 9799 9800 9797 9790 9782 9777 9777 9783 9796
2070.2092 9812 9827 9839 9847 9851 9855 9858 9860 9859 9855 9848 9840 9831
2076.4768 9821 9811 9800 9791 9788 9794 9808 9829 9853 9875 9892 9901 9899
2082.7444 9884 9858 9826 9794 9772 9765 9772 9788 9806 9819 9826 9828 9828
2089.0117 9829 9829 9827 9823 9819 9817 9821 9830 9840 9848 9850 9844 9833
2095.2793 9822 9815 9813 9815 9817 9818 9818 9817 9818 9824 9835 9853 9876
2101.5469 9899 9916 9920 9910 9889 9864 9846 9837 9837 9841 9845 9845 9843
2107.8145 9842 9845 9851 9859 9864 9865 9860 9851 9839 9826 9813 9803 9795
2114.0818 9790 9789 9792 9800 9811 9823 9835 9846 9856 9864 9869 9872 9870
2120.3494 9865 9858 9853 9850 9849 9850 9850 9849 9848 9847 9845 9844 9842
2126.6169 9840 9837 9833 9829 9827 9826 9830 9837 9848 9861 9874 9889 9906
2132.8845 9927 9950 9971 9982 9977 9956 9922 9886 9859 9849 9860 9888 9924
2139.1519 9953 9965 9958 9936 9910 9889 9878 9876 9878 9883 9888 9892 9895
2145.4194 9894 9891 9893 9908 9943 9993 10044 10077 10081 10056 10018 9984
2151.2048 9965 9958 9953 9941 9926 9920 9935 9976 10032 10090 10136 10171
2156.9902 10199 10222 10233 10213 10151 10053 9944 9854 9799 9780 9786 9804
2162.7756 9824 9841 9857 9873 9891 9907 9919 9926 9924 9913 9894 9873 9857
2169.0432 9854 9868 9897 9932 9960 9971 9962 9940 9919 9911 9917 9934 9947
2175.3108 9947 9932 9912 9899 9902 9918 9936 9945 9941 9929 9918 9917 9925
2181.5781 9933 9934 9924 9911 9906 9919 9954 10008 10070 10127 10165 10177
2187.3635 10160 10121 10071 10021 9983 9962 9957 9963 9973 9980 9978 9968 9954
2193.6311 9941 9932 9928 9927 9924 9914 9898 9878 9861 9851 9851 9858 9867
2199.8987 9875 9878 9875 9866 9852 9834 9816 9801 9792 9792 9796 9801 9801
2206.1663 9797 9789 9785 9788 9798 9813 9827 9833 9828 9813 9793 9776 9771
2212.4336 9785 9817 9860 9901 9925 9925 9903 9869 9837 9819 9818 9829 9840
2218.7012 9842 9828 9803 9777 9761 9762 9779 9802 9820 9827 9822 9812 9804
2224.9688 9802 9807 9817 9828 9839 9849 9857 9862 9864 9863 9860 9858 9856
2231.2363 9856 9857 9858 9860 9860 9860 9858 9853 9844 9831 9815 9800 9787
2237.5037 9781 9784 9794 9807 9816 9819 9816 9809 9807 9814 9832 9858 9883
2243.7712 9899 9900 9885 9859 9829 9804 9788 9780 9778 9777 9774 9772 9774
2250.0388 9781 9792 9803 9811 9815 9815 9813 9810 9805 9800 9794 9790 9791
2256.3064 9796 9801 9802 9794 9780 9763 9748 9740 9737 9738 9740 9742 9744
2262.5737 9749 9757 9766 9772 9773 9769 9760 9754 9752 9756 9765 9773 9777
2268.8413 9774 9764 9751 9740 9731 9726 9725 9727 9732 9742 9754 9766 9776
2275.1089 9782 9784 9782 9779 9773 9765 9756 9748 9745 9747 9756 9767 9778
2281.3765 9786 9790 9792 9793 9792 9791 9788 9784 9778 9773 9768 9763 9757
2287.6438 9751 9743 9734 9728 9723 9723 9725 9727 9727 9723 9713 9700 9688
2293.9114 9680 9679 9683 9689 9693 9691 9684 9672 9658 9645 9633 9622 9615
2300.1790 9609 9605 9603 9602 9600 9597 9592 9585 9574 9562 9548 9536 9525
2306.4465 9514 9502 9489 9473 9459 9448 9441 9437 9435 9431 9425 9416 9407
2312.7139 9399 9393 9388 9381 9371 9358 9343 9328 9313 9299 9285 9268 9249
2318.9814 9228 9207 9187 9172 9162 9157 9156 9154 9149 9139 9124 9105 9086
2325.2490 9067 9050 9035 9021 9010 9001 8996 8993 8989 8982 8971 8957 8942
2331.5166 8928 8916 8908 8902 8898 8896 8893 8889 8883 8878 8875 8877 8882
2337.7839 8888 8888 8877 8856 8827 8799 8779 8770 8771 8777 8785 8797 8817
2344.0515 8846 8882 8923 8966 9013 9063 9113 9156 9185 9195 9185 9158 9118
2350.3191 9068 9015 8962 8910 8862 8818 8779 8746 8716 8683 8641 8592 8540
2356.5867 8494 8461 8446 8449 8464 8485 8502 8507 8501 8490 8486 8495 8517
2362.8540 8547 8573 8592 8603 8612 8623 8640 8664 8691 8723 8758 8794 8830
2369.1216 8864 8896 8927 8960 8996 9033 9069 9103 9134 9162 9190 9219 9248
2375.3892 9278 9307 9336 9365 9392 9417 9440 9460 9477 9494 9511 9530 9550
2381.6567 9572 9595 9616 9634 9648 9659 9669 9676 9683 9689 9694 9698 9703
2387.9241 9710 9717 9724 9729 9730 9727 9721 9715 9711 9709 9709 9710 9713
2394.1917 9716 9720 9724 9727 9729 9731 9732 9732 9731 9727 9722 9716 9713
2400.4592 9713 9716 9721 9725 9727 9729 9729 9731 9732 9734 9734 9732 9730
2406.7268 9727 9725 9723 9722 9720 9719 9718 9717 9716 9712 9709 9705 9704
2412.9941 9705 9709 9713 9716 9717 9714 9710 9707 9707 9709 9713 9717 9719
2419.2617 9717 9712 9707 9702 9701 9702 9704 9706 9706 9706 9706 9709 9712
2425.5293 9716 9717 9715 9709 9703 9697 9693 9692 9694 9697 9700 9702 9702
2431.7969 9700 9697 9693 9690 9689 9692 9698 9706 9714 9720 9722 9719 9712
2438.0642 9702 9693 9687 9683 9683 9683 9684 9684 9686 9690 9695 9700 9705
2444.3318 9706 9703 9697 9688 9681 9676 9674 9677 9683 9689 9694 9697 9697
2450.5994 9695 9693 9691 9690 9689 9689 9688 9687 9685 9683 9679 9676 9674
2456.8669 9673 9673 9673 9673 9673 9673 9675 9676 9675 9671 9664 9655 9646
2463.1343 9641 9642 9647 9657 9668 9678 9686 9690 9692 9690 9685 9680 9674
2469.4019 9670 9668 9668 9670 9670 9670 9667 9662 9657 9652 9647 9643 9640
2475.6694 9639 9640 9641 9643 9647 9652 9658 9663 9666 9666 9664 9661 9660
2481.9370 9660 9661 9662 9663 9663 9663 9663 9663 9662 9661 9659 9656 9654
2488.2043 9652 9652 9653 9656 9660 9663 9665 9666 9665 9664 9664 9666 9669
2494.4719 9673 9675 9678 9680 9682 9683 9683 9681 9677 9673 9669 9667 9666
2500.7395 9666 9665 9663 9661 9659 9660 9662 9665 9666 9664 9660 9654 9649
2507.0071 9645 9645 9647 9649 9652 9654 9655 9655 9654 9653 9652 9652 9652
2513.2744 9651 9651 9649 9647 9644 9641 9636 9632 9628 9627 9627 9629 9632
2519.5420 9636 9639 9641 9643 9644 9645 9645 9644 9641 9640 9641 9645 9652
2525.8096 9660 9667 9670 9667 9658 9645 9632 9621 9615 9614 9616 9619 9621
2532.0771 9621 9621 9620 9621 9624 9627 9629 9630 9629 9630 9630 9631 9632
2538.3445 9630 9627 9623 9620 9617 9616 9615 9613 9610 9607 9605 9605 9607
2544.6121 9609 9612 9614 9615 9616 9617 9618 9619 9618 9617 9616 9616 9617
2550.8796 9619 9621 9621 9620 9617 9614 9612 9612 9615 9619 9624 9629 9632
2557.1472 9633 9633 9632 9630 9629 9629 9628 9629 9630 9630 9630 9628 9625
2563.4146 9623 9622 9622 9625 9627 9629 9630 9629 9628 9627 9626 9626 9625
2569.6821 9625 9626 9628 9631 9634 9634 9633 9629 9623 9616 9609 9604 9602
2575.9497 9604 9609 9615 9621 9623 9622 9619 9615 9612 9611 9611 9611 9611
2582.2173 9611 9611 9611 9612 9612 9611 9608 9603 9600 9597 9596 9594 9591
2588.4849 9587 9582 9576 9573 9572 9573 9575 9576 9576 9575 9573 9570 9567
2594.7522 9566 9566 9568 9569 9569 9566 9560 9554 9548 9544 9543 9545 9547
2601.0198 9549 9549 9548 9546 9542 9539 9535 9532 9531 9532 9533 9534 9533
2607.2874 9530 9526 9523 9521 9520 9521 9520 9518 9515 9513 9512 9512 9515
2613.5549 9517 9518 9518 9516 9513 9511 9509 9508 9508 9507 9507 9507 9506
2619.8223 9504 9501 9496 9491 9487 9485 9484 9486 9487 9489 9489 9490 9491
2626.0898 9492 9493 9492 9490 9487 9484 9483 9483 9485 9487 9489 9489 9485
2632.3574 9480 9475 9472 9471 9472 9473 9473 9471 9469 9467 9468 9470 9473
2638.6250 9475 9476 9476 9475 9475 9475 9476 9477 9479 9481 9483 9485 9485
2644.8923 9484 9483 9481 9478 9477 9476 9475 9476 9478 9480 9483 9486 9489
2651.1599 9490 9490 9489 9488 9489 9491 9494 9497 9499 9499 9498 9497 9496
2657.4275 9496 9497 9498 9500 9502 9503 9502 9500 9497 9494 9491 9489 9488
2663.6951 9487 9486 9485 9485 9486 9487 9487 9487 9485 9482 9479 9477 9476
2669.9624 9477 9480 9484 9487 9489 9490 9490 9489 9487 9485 9483 9481 9479
2676.2300 9478 9476 9475 9474 9473 9472 9472 9472 9473 9475 9476 9476 9475
2682.4976 9475 9476 9478 9481 9485 9487 9489 9488 9486 9482 9478 9475 9473
2688.7651 9472 9471 9471 9470 9469 9467 9466 9466 9466 9467 9467 9467 9467
2695.0325 9466 9465 9465 9466 9466 9467 9468 9468 9469 9469 9469 9469 9469
2701.3000 9468 9468 9468 9468 9467 9466 9464 9461 9459 9458 9459 9462 9465
2707.5676 9468 9470 9472 9472 9471 9469 9467 9466 9466 9465 9464 9462 9459
2713.8352 9456 9454 9453 9453 9454 9455 9455 9455 9454 9452 9450 9449 9447
2720.1025 9445 9443 9441 9440 9439 9439 9440 9440 9440 9440 9440 9439 9438
2726.3701 9436 9434 9432 9431 9430 9429 9428 9428 9429 9431 9434 9437 9438
2732.6377 9438 9437 9434 9430 9427 9424 9422 9421 9420 9420 9420 9421 9422
2738.9053 9423 9424 9424 9425 9425 9424 9422 9421 9419 9419 9419 9418 9417
2745.1726 9415 9412 9411 9410 9411 9412 9412 9411 9410 9408 9408 9407 9407
2751.4402 9405 9402 9397 9392 9388 9387 9388 9389 9389 9388 9386 9384 9383
2757.7078 9382 9380 9378 9376 9373 9371 9369 9367 9364 9360 9356 9352 9349
2763.9753 9347 9346 9344 9342 9340 9337 9334 9332 9330 9328 9327 9326 9327
2770.2427 9328 9330 9332 9333 9332 9329 9325 9319 9313 9309 9306 9304 9304
2776.5103 9304 9304 9303 9301 9299 9296 9292 9289 9285 9282 9279 9278 9279
2782.7778 9280 9282 9285 9287 9288 9289 9288 9287 9286 9284 9282 9280 9277
2789.0454 9273 9268 9263 9258 9255 9253 9253 9253 9254 9256 9257 9258 9257
2795.3127 9254 9249 9243 9239 9235 9234 9234 9234 9235 9236 9236 9235 9233
2801.5803 9231 9228 9225 9223 9222 9221 9222 9224 9225 9226 9227 9227 9226
2807.8479 9224 9221 9218 9216 9215 9215 9216 9217 9217 9216 9215 9214 9215
2814.1155 9217 9220 9222 9224 9225 9227 9229 9230 9231 9231 9229 9226 9224
2820.3828 9223 9224 9227 9230 9234 9237 9237 9236 9234 9232 9232 9234 9237
2826.6504 9240 9241 9241 9240 9238 9237 9238 9240 9243 9246 9248 9248 9247
2832.9180 9245 9242 9240 9240 9241 9244 9246 9246 9246 9244 9242 9241 9239
2839.1855 9239 9239 9239 9239 9240 9240 9239 9237 9235 9232 9230 9228 9227
2845.4529 9227 9227 9228 9228 9228 9228 9228 9228 9228 9228 9228 9225 9222
2851.7205 9218 9215 9212 9211 9209 9207 9205 9201 9197 9194 9192 9191 9192
2857.9880 9196 9200 9204 9207 9208 9207 9203 9197 9192 9187 9183 9179 9177
2864.2556 9176 9175 9173 9171 9169 9166 9163 9160 9158 9156 9155 9156 9158
2870.5229 9160 9161 9160 9157 9154 9151 9149 9147 9145 9144 9143 9142 9142
2876.7905 9142 9142 9141 9141 9140 9138 9137 9134 9131 9129 9126 9125 9124
2883.0581 9123 9122 9121 9120 9121 9124 9128 9130 9131 9129 9124 9117 9110
2889.3257 9103 9097 9093 9092 9092 9093 9093 9094 9094 9094 9093 9091 9089
2895.5930 9086 9083 9080 9077 9074 9071 9069 9069 9070 9072 9076 9079 9082
2901.8606 9083 9083 9083 9083 9082 9082 9080 9078 9076 9075 9075 9074 9073
2908.1282 9071 9070 9071 9074 9079 9085 9090 9095 9099 9102 9104 9106 9109
2914.3958 9112 9115 9117 9119 9120 9121 9124 9130 9138 9145 9151 9153 9153
2920.6631 9153 9155 9158 9162 9167 9171 9174 9177 9180 9181 9181 9179 9175
2926.9307 9172 9170 9171 9174 9177 9180 9181 9181 9180 9177 9173 9169 9165
2933.1982 9163 9163 9165 9166 9168 9167 9165 9162 9158 9153 9148 9143 9138
2939.4658 9134 9132 9131 9131 9132 9130 9127 9123 9118 9115 9114 9115 9116
2945.7332 9118 9118 9117 9116 9115 9114 9114 9113 9113 9113 9114 9116 9118
2952.0007 9118 9118 9115 9113 9111 9112 9114 9116 9117 9117 9115 9114 9115
2958.2683 9117 9120 9121 9119 9117 9114 9114 9116 9119 9121 9121 9118 9114
2964.5359 9110 9107 9107 9109 9113 9118 9125 9130 9132 9130 9125 9119 9114
2970.8032 9112 9114 9118 9122 9124 9125 9123 9121 9120 9120 9121 9121 9120
2977.0708 9118 9114 9111 9108 9106 9106 9104 9101 9097 9092 9089 9088 9091
2983.3384 9094 9096 9096 9091 9084 9075 9067 9059 9052 9046 9040 9036 9035
2989.6060 9036 9039 9043 9044 9041 9035 9025 9015 9006 9000 8996 8993 8989
2995.8733 8985 8980 8976 8974 8974 8974 8973 8970 8965 8960 8956 8956 8957
3002.1409 8959 8959 8956 8950 8942 8934 8928 8923 8920 8917 8915 8913 8912
3008.4084 8911 8910 8907 8904 8899 8894 8889 8884 8879 8873 8869 8866 8865
3014.6760 8867 8870 8872 8873 8872 8868 8864 8859 8856 8853 8850 8847 8844
3020.9434 8842 8841 8841 8842 8842 8841 8837 8832 8828 8826 8825 8826 8829
3027.2109 8833 8836 8837 8836 8833 8829 8826 8824 8825 8827 8829 8829 8827
3033.4785 8824 8821 8817 8815 8814 8815 8818 8822 8826 8830 8832 8833 8834
3039.7461 8834 8833 8830 8826 8819 8811 8803 8795 8788 8783 8777 8771 8766
3046.0134 8761 8760 8761 8763 8765 8763 8756 8745 8731 8720 8713 8710 8711
3052.2810 8713 8712 8708 8702 8694 8686 8679 8673 8668 8664 8661 8661 8663
3058.5486 8667 8673 8681 8689 8697 8703 8708 8710 8711 8712 8713 8716 8720
3064.8162 8724 8729 8732 8734 8735 8736 8737 8738 8742 8747 8752 8757 8760
3071.0835 8761 8760 8758 8755 8752 8749 8746 8745 8745 8746 8747 8746 8742
3077.3511 8736 8729 8724 8721 8721 8722 8722 8721 8719 8715 8711 8707 8702
3083.6187 8698 8692 8687 8682 8680 8680 8682 8686 8689 8690 8688 8683 8675
3089.8862 8667 8660 8656 8656 8657 8659 8661 8661 8660 8659 8657 8653 8648
3096.1536 8641 8633 8626 8620 8614 8607 8599 8588 8575 8561 8545 8527 8507
3102.4211 8484 8462 8441 8425 8418 8419 8430 8447 8471 8498 8528 8559 8589
3108.6887 8618 8645 8669 8689 8706 8720 8731 8741 8750 8756 8762 8765 8769
3114.9563 8773 8776 8777 8777 8773 8768 8763 8759 8757 8755 8754 8752 8750
3121.2236 8748 8747 8746 8745 8743 8741 8739 8737 8735 8734 8732 8730 8729
3127.4912 8728 8729 8730 8729 8728 8723 8717 8711 8706 8703 8704 8706 8709
3133.7588 8711 8711 8709 8705 8701 8698 8697 8696 8695 8692 8687 8680 8673
3140.0264 8668 8666 8667 8671 8676 8681 8685 8687 8687 8687 8687 8688 8690
3146.2937 8693 8696 8701 8708 8716 8724 8734 8743 8751 8759 8767 8774 8779
3152.5613 8783 8786 8788 8791 8794 8799 8805 8813 8822 8832 8843 8853 8862
3158.8289 8868 8872 8875 8877 8881 8886 8891 8896 8901 8904 8908 8910 8913
3165.0964 8916 8921 8926 8932 8937 8942 8945 8947 8949 8951 8952 8955 8959
3171.3638 8965 8972 8979 8986 8992 8996 8999 9001 9002 9003 9002 9001 9001
3177.6313 9001 9003 9007 9011 9014 9017 9019 9021 9022 9023 9024 9026 9030
3183.8989 9036 9043 9050 9055 9057 9057 9055 9054 9054 9056 9058 9062 9067
3190.1665 9073 9081 9088 9093 9097 9099 9101 9102 9104 9106 9107 9108 9107
3196.4338 9106 9106 9106 9108 9111 9118 9127 9138 9149 9159 9166 9170 9173
3202.7014 9174 9176 9177 9179 9181 9182 9183 9184 9184 9184 9185 9188 9191
3208.9690 9194 9195 9196 9196 9197 9201 9207 9214 9221 9226 9230 9233 9235
3215.2366 9238 9240 9240 9239 9237 9233 9230 9229 9232 9237 9245 9254 9263
3221.5039 9270 9274 9272 9265 9255 9245 9236 9231 9230 9232 9236 9240 9242
3227.7715 9243 9243 9242 9241 9241 9244 9247 9252 9257 9261 9264 9266 9267
3234.0391 9267 9267 9267 9267 9268 9269 9270 9272 9273 9274 9275 9277 9280
3240.3066 9283 9285 9286 9286 9285 9285 9286 9290 9295 9301 9307 9311 9314
3246.5740 9316 9318 9318 9318 9318 9318 9318 9318 9320 9323 9326 9330 9333
3252.8416 9336 9338 9339 9340 9340 9340 9339 9337 9337 9337 9339 9343 9348
3259.1091 9352 9356 9358 9359 9359 9358 9358 9359 9358 9357 9356 9354 9353
3265.3767 9354 9358 9362 9366 9367 9367 9364 9361 9359 9359 9361 9364 9367
3271.6440 9368 9368 9365 9362 9359 9358 9359 9362 9365 9368 9369 9369 9367
3277.9116 9366 9366 9367 9370 9375 9381 9386 9390 9390 9387 9381 9375 9370
3284.1792 9371 9376 9385 9395 9404 9409 9411 9409 9406 9402 9399 9398 9399
3290.4468 9404 9410 9418 9425 9432 9437 9442 9446 9451 9456 9459 9460 9461
3296.7141 9461 9462 9464 9468 9471 9475 9477 9480 9483 9486 9491 9497 9502
3302.9817 9506 9510 9513 9516 9520 9524 9529 9536 9543 9550 9557 9562 9565
3309.2493 9568 9571 9575 9580 9586 9590 9592 9592 9591 9592 9595 9601 9609
3315.5168 9617 9622 9625 9626 9626 9628 9631 9636 9642 9648 9654 9658 9661
3321.7842 9664 9664 9664 9663 9663 9664 9666 9671 9678 9684 9690 9693 9693
3328.0518 9691 9688 9686 9687 9691 9697 9703 9707 9709 9709 9709 9710 9713
3334.3193 9716 9719 9720 9722 9726 9731 9737 9741 9742 9739 9734 9729 9727
3340.5869 9729 9732 9735 9737 9737 9737 9736 9736 9735 9733 9730 9726 9723
3346.8542 9722 9724 9728 9732 9735 9738 9739 9738 9737 9735 9732 9729 9726
3353.1218 9725 9724 9724 9724 9722 9721 9720 9720 9720 9722 9724 9726 9729
3359.3894 9733 9736 9739 9741 9743 9744 9744 9744 9744 9743 9743 9743 9744
3365.6570 9745 9746 9746 9746 9748 9752 9759 9766 9772 9774 9772 9769 9765
3371.9243 9763 9761 9760 9759 9758 9758 9759 9761 9764 9768 9771 9775 9778
3378.1919 9781 9781 9780 9777 9775 9774 9774 9775 9775 9773 9770 9765 9761
3384.4595 9757 9755 9755 9756 9758 9760 9763 9767 9771 9775 9779 9782 9782
3390.7271 9779 9773 9767 9761 9757 9755 9755 9756 9756 9756 9756 9756 9757
3396.9944 9758 9760 9759 9756 9750 9744 9739 9736 9736 9737 9738 9740 9740
3403.2620 9742 9744 9746 9749 9750 9750 9747 9744 9741 9740 9742 9746 9750
3409.5295 9753 9754 9753 9749 9745 9741 9738 9736 9734 9734 9734 9735 9735
3415.7971 9735 9735 9736 9738 9740 9741 9740 9738 9736 9735 9735 9736 9736
3422.0645 9735 9732 9729 9726 9724 9724 9724 9724 9725 9728 9732 9736 9739
3428.3320 9740 9739 9737 9733 9731 9729 9730 9731 9731 9729 9725 9721 9717
3434.5996 9715 9716 9719 9721 9723 9722 9719 9715 9711 9707 9703 9698 9694
3440.8672 9691 9689 9690 9693 9697 9700 9700 9698 9692 9684 9676 9670 9667
3447.1345 9669 9674 9679 9684 9686 9688 9689 9693 9698 9703 9708 9709 9705
3453.4021 9699 9690 9683 9677 9673 9671 9668 9665 9663 9662 9664 9669 9675
3459.6697 9682 9686 9686 9682 9676 9670 9667 9666 9669 9672 9674 9673 9669
3465.9373 9663 9656 9650 9647 9648 9652 9658 9664 9669 9673 9677 9680 9681
3472.2046 9679 9674 9666 9657 9648 9642 9640 9641 9643 9647 9651 9654 9655
3478.4722 9654 9652 9647 9641 9636 9632 9631 9632 9635 9639 9643 9646 9648
3484.7397 9647 9643 9637 9629 9621 9616 9615 9620 9629 9637 9643 9644 9641
3491.0073 9636 9632 9630 9630 9631 9632 9632 9630 9626 9622 9618 9613 9609
3497.2747 9605 9602 9600 9600 9600 9600 9598 9592 9585 9576 9570 9567 9568
3503.5422 9573 9578 9583 9586 9587 9586 9582 9577 9571 9565 9559 9555 9552
3509.8098 9551 9550 9550 9549 9548 9546 9543 9536 9527 9517 9508 9501 9496
3516.0774 9493 9490 9485 9477 9466 9455 9444 9435 9426 9418 9407 9394 9377
3522.3447 9358 9339 9322 9309 9299 9291 9283 9275 9269 9268 9272 9281 9291
3528.6123 9301 9308 9313 9318 9325 9335 9347 9361 9375 9390 9405 9419 9431
3534.8799 9441 9449 9456 9463 9472 9484 9497 9511 9524 9534 9539 9538 9535
3541.1475 9530 9526 9523 9520 9518 9518 9519 9521 9523 9523 9522 9520 9519
3547.4148 9523 9529 9537 9545 9550 9553 9555 9555 9554 9552 9550 9548 9546
3553.6824 9546 9545 9545 9545 9544 9544 9545 9545 9544 9542 9540 9537 9536
3559.9500 9535 9532 9527 9519 9509 9498 9488 9479 9470 9460 9448 9435 9422
3566.2175 9414 9414 9423 9435 9447 9453 9456 9454 9450 9446 9441 9436 9430
3572.4851 9422 9411 9397 9384 9374 9368 9366 9366 9363 9356 9344 9329 9313
3578.7524 9299 9289 9282 9278 9274 9270 9267 9264 9264 9265 9266 9264 9258
3585.0200 9249 9238 9229 9224 9223 9226 9232 9239 9248 9258 9269 9279 9287
3591.2876 9293 9297 9302 9308 9315 9324 9334 9346 9358 9369 9378 9383 9386
3597.5552 9387 9389 9392 9396 9399 9402 9405 9409 9415 9423 9434 9445 9455
3603.8225 9464 9470 9471 9469 9465 9460 9457 9458 9466 9480 9496 9510 9518
3610.0901 9518 9512 9503 9494 9489 9492 9501 9514 9526 9535 9538 9535 9529
3616.3577 9518 9507 9497 9492 9492 9498 9507 9515 9524 9532 9541 9551 9560
3622.6252 9566 9568 9565 9558 9549 9541 9534 9529 9524 9514 9500 9482 9472
3628.8926 9483 9512 9541 9562 9573 9578 9577 9573 9568 9564 9565 9572 9581
3635.1602 9590 9595 9595 9590 9583 9580 9583 9593 9606 9618 9626 9626 9621
3641.4277 9613 9608 9607 9610 9614 9615 9611 9600 9583 9563 9545 9536 9539
3647.6953 9548 9554 9552 9546 9543 9554 9578 9605 9626 9638 9641 9637 9627
3653.9626 9614 9600 9586 9580 9584 9597 9613 9626 9633 9636 9636 9636 9636
3660.2302 9636 9636 9635 9632 9629 9627 9626 9627 9628 9630 9632 9632 9630
3666.4978 9624 9615 9601 9582 9561 9541 9530 9534 9553 9577 9596 9605 9604
3672.7654 9595 9578 9551 9515 9482 9476 9504 9539 9566 9582 9592 9598 9600
3679.0327 9601 9600 9599 9601 9604 9610 9615 9619 9620 9616 9609 9600 9592
3685.3003 9586 9581 9576 9571 9566 9560 9554 9548 9539 9526 9515 9511 9518
3691.5679 9537 9561 9581 9596 9603 9604 9603 9601 9600 9602 9605 9607 9606
3697.8354 9602 9593 9581 9566 9551 9539 9534 9540 9554 9567 9573 9572 9567
3704.1028 9562 9559 9557 9556 9553 9548 9541 9536 9532 9532 9535 9539 9541
3710.3704 9544 9548 9557 9570 9583 9594 9602 9607 9611 9613 9612 9608 9600
3716.6379 9588 9577 9568 9566 9570 9577 9582 9581 9572 9556 9539 9527 9523
3722.9055 9527 9533 9537 9537 9533 9527 9522 9521 9524 9530 9535 9538 9536
3729.1729 9530 9523 9516 9512 9513 9518 9521 9517 9506 9491 9476 9468 9470
3735.4404 9482 9498 9512 9524 9533 9542 9551 9558 9564 9570 9574 9575 9570
3741.7080 9560 9545 9527 9510 9503 9515 9541 9560 9565 9562 9557 9551 9546
3747.9756 9541 9536 9529 9520 9511 9503 9498 9503 9521 9547 9569 9582 9586
3754.2429 9584 9580 9577 9579 9586 9595 9601 9602 9597 9591 9585 9585 9589
3760.5105 9595 9600 9605 9609 9613 9616 9617 9616 9614 9612 9612 9613 9612
3766.7781 9608 9600 9589 9576 9565 9561 9566 9578 9591 9602 9609 9613 9614
3773.0457 9613 9610 9608 9607 9610 9615 9620 9623 9622 9616 9606 9596 9588
3779.3130 9585 9586 9590 9594 9598 9601 9603 9603 9603 9603 9605 9609 9613
3785.5806 9616 9617 9615 9612 9610 9609 9611 9614 9617 9619 9620 9621 9621
3791.8481 9622 9621 9619 9615 9610 9604 9598 9593 9591 9595 9602 9610 9612
3798.1157 9607 9596 9579 9558 9538 9523 9522 9538 9562 9584 9601 9612 9617
3804.3831 9616 9611 9603 9595 9593 9598 9606 9612 9615 9616 9616 9617 9617
3810.6506 9618 9617 9614 9608 9600 9589 9578 9567 9559 9558 9565 9577 9586
3816.9182 9589 9585 9578 9567 9553 9535 9516 9503 9509 9534 9562 9582 9592
3823.1858 9595 9592 9585 9578 9572 9569 9571 9577 9584 9590 9593 9593 9589
3829.4531 9585 9581 9579 9582 9589 9596 9600 9600 9596 9589 9579 9569 9559
3835.7207 9550 9542 9535 9530 9530 9533 9539 9547 9556 9565 9570 9571 9568
3841.9883 9564 9563 9567 9577 9591 9603 9612 9615 9614 9612 9610 9607 9604
3848.2559 9600 9594 9585 9573 9559 9542 9526 9511 9502 9504 9522 9549 9569
3854.5232 9576 9576 9573 9572 9575 9582 9592 9600 9603 9602 9595 9586 9576
3860.7908 9567 9561 9558 9557 9554 9550 9544 9539 9541 9550 9561 9571 9575
3867.0583 9575 9569 9560 9548 9539 9541 9557 9576 9589 9594 9592 9586 9579
3873.3259 9575 9577 9583 9586 9586 9583 9581 9582 9584 9587 9586 9579 9566
3879.5933 9553 9546 9551 9563 9577 9586 9591 9591 9587 9581 9576 9575 9579
3885.8608 9586 9592 9595 9594 9592 9589 9585 9579 9572 9566 9562 9565 9573
3892.1284 9583 9591 9598 9603 9606 9609 9610 9608 9604 9597 9589 9583 9579
3898.3960 9578 9579 9578 9572 9563 9552 9542 9534 9528 9524 9523 9527 9537
3904.6633 9553 9570 9586 9596 9601 9603 9605 9609 9613 9619 9622 9623 9620
3910.9309 9616 9611 9607 9605 9604 9604 9602 9597 9591 9583 9577 9575 9578
3917.1985 9585 9591 9594 9594 9592 9591 9591 9592 9592 9590 9586 9581 9576
3923.4661 9573 9573 9578 9583 9587 9588 9587 9586 9587 9590 9595 9601 9602
3929.7334 9599 9590 9579 9570 9565 9566 9571 9578 9583 9588 9592 9596 9598
3936.0010 9599 9597 9596 9595 9598 9602 9608 9611 9610 9604 9596 9587 9580
3942.2686 9578 9583 9592 9603 9612 9616 9615 9608 9597 9586 9577 9572 9569
3948.5361 9570 9571 9574 9579 9586 9593 9599 9604 9606 9605 9601 9594 9588
3954.8035 9582 9579 9580 9582 9585 9589 9592 9594 9597 9598 9596 9592 9584
3961.0710 9577 9572 9572 9577 9585 9593 9599 9603 9605 9607 9608 9608 9608
3967.3386 9606 9604 9602 9601 9601 9600 9599 9596 9592 9588 9585 9583 9581
3973.6062 9581 9582 9586 9591 9598 9605 9609 9608 9604 9598 9592 9588 9588
3979.8735 9591 9595 9598 9599 9598 9597 9597 9599 9603 9607 9612 9615 9617
3986.1411 9615 9612 9606 9600 9595 9594 9595 9600 9607 9613 9616 9616 9613
3992.4087 9607 9601 9596 9593 9593 9596 9599 9603 9604 9603 9600 9596 9593
3998.6763 9592 9593 9597 9603
##END= 
