##TITLE= STDPROPIFENAZONE
##JCAMP-DX= 4.24
##DATA TYPE= INFRARED SPECTRUM
##ORIGIN= JASCO
##OWNER= 
##DATE= 22/05/04
##TIME= 18:09:53
##SPECTROMETER/DATA SYSTEM= 
##RESOLUTION= 
##DELTAX=   0.48211674
##XUNITS= 1/CM
##YUNITS= TRANSMITTANCE
##XFACTOR= 1.00000
##YFACTOR= 0.0001
##FIRSTX=   599.7532
##LASTX=  4000.1226
##NPOINTS=     7054
##FIRSTY=      0.66344
##MAXY=      1.25612
##MINY=      0.34688
##XYDATA= (X++(Y..Y))
599.7532 6634 7178 7756 8329 8870 9362 9790 10146 10425 10635 10795 10920
605.5386 11021 11096 11139 11153 11145 11131 11122 11117 11106 11076 11024
610.8419 10956 10878 10794 10699 10588 10464 10347 10266 10245 10291 10387
616.1452 10506 10615 10697 10748 10779 10796 10795 10768 10710 10624 10526
621.4485 10438 10371 10327 10294 10255 10195 10112 10008 9892 9767 9637 9499
627.2339 9356 9212 9073 8941 8814 8686 8550 8404 8250 8100 7966 7862 7798 7777
633.9835 7793 7834 7882 7919 7928 7905 7852 7779 7700 7624 7557 7494 7427 7347
640.7332 7251 7149 7054 6980 6936 6917 6908 6893 6858 6804 6742 6691 6666 6677
647.4828 6722 6791 6869 6945 7018 7098 7197 7329 7493 7681 7876 8060 8223 8365
654.2324 8491 8608 8714 8804 8875 8928 8975 9029 9096 9167 9226 9258 9258 9236
660.9821 9209 9192 9189 9199 9210 9213 9198 9163 9111 9051 8992 8943 8901 8847
667.7317 8712 8422 8090 7878 7765 7697 7654 7641 7673 7768 7934 8163 8437 8724
674.4813 8993 9213 9368 9461 9510 9538 9563 9588 9604 9601 9576 9537 9497 9467
681.2310 9450 9444 9447 9457 9471 9486 9491 9476 9432 9363 9279 9194 9117 9052
687.9806 8991 8925 8841 8728 8574 8373 8125 7835 7508 7148 6751 6311 5829 5318
694.7302 4808 4339 3952 3681 3551 3575 3757 4089 4550 5109 5728 6370 7005 7608
701.4799 8167 8674 9123 9510 9830 10080 10265 10394 10481 10539 10581 10610
707.2653 10625 10622 10598 10558 10514 10480 10464 10469 10486 10501 10505
712.5685 10492 10466 10431 10392 10352 10310 10270 10240 10232 10254 10309
717.8718 10387 10465 10520 10529 10491 10424 10360 10326 10332 10367 10411
723.1751 10443 10453 10438 10400 10347 10282 10212 10145 10094 10074 10092
728.4784 10141 10202 10246 10250 10205 10125 10032 9951 9895 9863 9843 9823
734.2638 9797 9772 9767 9800 9881 10002 10138 10253 10314 10308 10246 10156
740.0492 10066 9994 9936 9874 9788 9666 9503 9302 9064 8789 8476 8126 7744
746.3167 7339 6924 6517 6145 5840 5630 5523 5504 5535 5574 5596 5604 5633 5736
753.0663 5965 6351 6895 7567 8307 9044 9718 10304 10814 11273 11686 12028
758.8517 12264 12385 12421 12426 12442 12484 12537 12561 12514 12366 12107
764.1550 11740 11266 10687 10021 9299 8569 7881 7281 6808 6492 6352 6397 6621
770.4225 7001 7497 8057 8625 9152 9607 9975 10256 10460 10599 10689 10744
776.2079 10778 10800 10813 10818 10813 10799 10777 10754 10733 10716 10701
781.5112 10686 10669 10650 10629 10608 10590 10577 10568 10561 10555 10547
786.8145 10537 10525 10513 10504 10499 10497 10497 10494 10488 10475 10458
792.1178 10438 10417 10397 10378 10359 10336 10309 10278 10248 10218 10191
797.4211 10164 10135 10105 10073 10042 10013 9988 9964 9939 9909 9874 9834
803.2065 9792 9745 9695 9637 9571 9496 9416 9332 9244 9148 9037 8901 8735 8544
809.9561 8337 8136 7962 7840 7786 7809 7906 8067 8275 8509 8753 8988 9201 9382
816.7057 9527 9639 9723 9788 9843 9891 9933 9966 9990 10005 10016 10026 10038
822.9733 10052 10066 10077 10085 10092 10100 10113 10129 10149 10166 10174
828.2766 10165 10135 10086 10023 9954 9886 9822 9762 9705 9650 9600 9557 9518
834.5441 9481 9440 9393 9342 9294 9256 9237 9238 9259 9293 9333 9370 9400 9418
841.2937 9426 9428 9428 9430 9434 9441 9446 9446 9437 9418 9392 9364 9343 9337
848.0433 9346 9369 9396 9418 9430 9430 9422 9409 9394 9376 9351 9319 9279 9233
854.7930 9185 9139 9096 9057 9020 8981 8932 8868 8785 8680 8558 8422 8275 8120
861.5426 7959 7795 7636 7492 7373 7292 7256 7269 7329 7433 7575 7747 7941 8145
868.2922 8350 8549 8737 8912 9071 9212 9334 9432 9507 9560 9597 9622 9640 9651
875.0419 9659 9662 9663 9662 9663 9665 9668 9667 9663 9656 9649 9647 9651 9662
881.7915 9676 9689 9698 9700 9698 9693 9686 9677 9667 9656 9644 9635 9629 9626
888.5411 9624 9623 9620 9614 9606 9595 9581 9566 9549 9532 9514 9496 9479 9461
895.2908 9442 9420 9394 9363 9327 9285 9240 9192 9140 9084 9021 8951 8873 8790
902.0404 8706 8625 8551 8488 8439 8407 8394 8400 8425 8464 8515 8572 8630 8684
908.7900 8731 8768 8795 8810 8812 8800 8775 8735 8684 8622 8556 8489 8427 8374
915.5397 8334 8312 8308 8322 8349 8384 8422 8461 8501 8547 8601 8663 8733 8807
922.2893 8884 8962 9040 9118 9193 9265 9329 9385 9434 9476 9515 9552 9589 9624
929.0389 9657 9686 9710 9730 9747 9761 9774 9788 9803 9820 9838 9855 9867 9872
935.7886 9868 9856 9837 9814 9789 9763 9738 9717 9700 9688 9680 9677 9675 9672
942.5382 9669 9663 9657 9651 9643 9634 9624 9613 9603 9596 9593 9592 9593 9591
949.2878 9587 9581 9575 9569 9565 9559 9551 9539 9526 9515 9506 9503 9504 9508
956.0375 9513 9518 9521 9522 9520 9515 9506 9495 9483 9473 9466 9462 9459 9456
962.7871 9450 9439 9424 9407 9390 9378 9372 9377 9391 9415 9444 9475 9503 9524
969.5367 9537 9542 9541 9536 9529 9519 9506 9491 9473 9455 9436 9417 9398 9377
976.2864 9353 9322 9286 9244 9197 9146 9094 9045 9000 8964 8937 8920 8909 8902
983.0360 8898 8896 8896 8899 8903 8903 8897 8883 8860 8831 8796 8757 8713 8662
989.7856 8601 8529 8446 8355 8265 8183 8122 8089 8087 8117 8170 8236 8304 8365
996.5353 8413 8447 8466 8470 8460 8434 8390 8327 8246 8147 8032 7900 7748 7575
1003.2849 7385 7187 7002 6851 6759 6739 6791 6904 7057 7229 7400 7561 7705
1009.5524 7831 7939 8032 8111 8179 8238 8290 8335 8373 8404 8428 8447 8462
1015.8199 8473 8478 8477 8467 8447 8416 8374 8323 8261 8188 8103 8004 7888
1022.0875 7759 7618 7472 7329 7196 7084 7003 6966 6982 7053 7176 7342 7532
1028.3550 7728 7912 8070 8197 8288 8348 8379 8387 8377 8354 8321 8282 8238
1034.6226 8192 8147 8105 8069 8041 8022 8010 8004 8002 8006 8016 8035 8066
1040.8900 8109 8161 8218 8274 8325 8367 8403 8435 8466 8499 8532 8562 8586
1047.1576 8602 8611 8615 8615 8614 8608 8598 8581 8560 8537 8512 8487 8460
1053.4250 8432 8400 8366 8332 8297 8262 8225 8186 8143 8097 8046 7992 7934
1059.6926 7871 7804 7733 7657 7579 7501 7423 7346 7270 7193 7114 7032 6946
1065.9601 6860 6779 6708 6652 6614 6595 6599 6626 6675 6745 6831 6930 7036
1072.2277 7143 7247 7343 7425 7489 7528 7539 7517 7465 7383 7275 7145 6994
1078.4951 6824 6639 6444 6247 6062 5904 5789 5730 5733 5801 5928 6105 6319
1084.7627 6559 6810 7060 7299 7517 7710 7875 8015 8133 8230 8307 8363 8396
1091.0302 8406 8393 8362 8318 8267 8209 8146 8076 7998 7915 7829 7744 7664
1097.2977 7588 7518 7454 7397 7350 7313 7287 7272 7266 7270 7282 7302 7329
1103.5652 7364 7406 7458 7521 7595 7676 7759 7839 7911 7975 8033 8088 8142
1109.8328 8199 8259 8324 8392 8458 8520 8573 8614 8643 8660 8670 8672 8667
1116.1002 8656 8636 8610 8576 8537 8494 8448 8399 8348 8292 8230 8159 8079
1122.3678 7990 7891 7784 7669 7545 7411 7266 7110 6942 6763 6574 6376 6172
1128.6353 5965 5756 5548 5344 5145 4953 4773 4607 4462 4341 4250 4195 4179
1134.9028 4211 4293 4431 4625 4874 5173 5515 5888 6281 6682 7077 7455 7808
1141.1703 8131 8421 8677 8900 9091 9254 9393 9510 9609 9691 9756 9807 9845
1147.4379 9875 9900 9924 9948 9974 9999 10025 10050 10077 10103 10127 10146
1153.2233 10156 10155 10144 10124 10100 10074 10050 10029 10011 9997 9987 9980
1159.0087 9977 9979 9984 9991 9996 9998 9993 9984 9970 9955 9939 9923 9905
1165.2761 9883 9857 9826 9794 9761 9729 9696 9661 9624 9581 9533 9476 9411
1171.5437 9336 9251 9156 9054 8951 8857 8780 8734 8725 8761 8841 8958 9102
1177.8112 9259 9417 9566 9698 9811 9904 9979 10038 10081 10111 10130 10138
1183.5966 10139 10135 10128 10120 10110 10101 10091 10081 10072 10063 10053
1188.8999 10042 10026 10006 9982 9956 9932 9910 9890 9871 9851 9830 9808 9787
1195.1674 9766 9747 9729 9712 9696 9680 9666 9654 9642 9629 9615 9599 9581
1201.4349 9560 9535 9504 9467 9422 9374 9325 9279 9239 9206 9180 9161 9149
1207.7024 9143 9146 9155 9168 9183 9199 9216 9236 9259 9288 9320 9355 9390
1213.9700 9423 9454 9485 9515 9545 9573 9600 9624 9647 9668 9687 9705 9722
1220.2374 9737 9751 9763 9772 9779 9786 9792 9798 9805 9811 9815 9817 9816
1226.5050 9813 9807 9799 9790 9780 9769 9758 9748 9739 9729 9719 9709 9697
1232.7725 9684 9670 9654 9638 9620 9603 9588 9574 9562 9550 9537 9521 9500
1239.0400 9476 9449 9421 9393 9366 9339 9312 9285 9258 9232 9207 9182 9159
1245.3075 9137 9117 9099 9082 9066 9052 9041 9032 9028 9028 9032 9039 9047
1251.5751 9056 9068 9082 9100 9121 9145 9171 9199 9229 9260 9291 9320 9346
1257.8425 9365 9376 9377 9370 9355 9330 9294 9242 9174 9091 8994 8887 8772
1264.1101 8653 8541 8449 8389 8364 8360 8344 8276 8136 7942 7736 7563 7447
1270.3776 7393 7388 7412 7442 7462 7464 7452 7428 7397 7360 7316 7269 7222
1276.6451 7175 7133 7095 7062 7035 7013 6997 6986 6982 6984 6992 7005 7022
1282.9126 7038 7054 7068 7079 7090 7099 7107 7113 7115 7112 7101 7081 7050
1289.1802 7009 6959 6902 6842 6785 6733 6690 6658 6639 6633 6640 6660 6693
1295.4476 6739 6799 6873 6957 7050 7148 7245 7340 7429 7508 7574 7625 7657
1301.7152 7670 7663 7641 7605 7558 7504 7444 7378 7306 7228 7141 7044 6935
1307.9827 6812 6679 6539 6399 6265 6144 6045 5976 5945 5959 6021 6128 6274
1314.2502 6448 6642 6848 7059 7265 7456 7622 7756 7852 7910 7931 7918 7878
1320.5177 7816 7736 7644 7541 7431 7316 7197 7077 6955 6831 6708 6587 6474
1326.7853 6375 6296 6243 6221 6231 6271 6339 6429 6535 6650 6771 6894 7015
1333.0527 7132 7240 7336 7414 7475 7515 7532 7526 7497 7447 7381 7302 7210
1339.3203 7108 7002 6897 6799 6712 6634 6567 6510 6466 6437 6424 6425 6438
1345.5878 6462 6494 6532 6575 6623 6674 6730 6788 6845 6900 6951 6995 7033
1351.8553 7062 7082 7090 7092 7095 7112 7155 7230 7338 7469 7614 7758 7889
1358.1228 7998 8079 8129 8149 8142 8113 8062 7988 7887 7753 7594 7426 7270
1364.3904 7138 7033 6954 6903 6881 6891 6934 7005 7100 7208 7324 7442 7559
1370.6578 7676 7789 7898 7999 8091 8177 8259 8339 8423 8512 8610 8722 8851
1376.9254 8999 9164 9336 9504 9653 9779 9881 9962 10027 10079 10120 10151
1382.7108 10173 10186 10190 10188 10181 10170 10157 10145 10133 10122 10108
1388.0140 10090 10067 10042 10013 9981 9944 9903 9857 9809 9758 9704 9646 9583
1394.2816 9515 9445 9377 9312 9249 9187 9124 9055 8977 8888 8791 8692 8595
1400.5491 8500 8400 8294 8181 8066 7950 7834 7712 7580 7440 7297 7160 7031
1406.8167 6906 6781 6657 6537 6425 6325 6237 6163 6103 6060 6036 6034 6054
1413.0841 6095 6153 6229 6323 6437 6571 6720 6871 7014 7144 7268 7402 7550
1419.3517 7691 7788 7832 7844 7841 7837 7836 7843 7856 7873 7886 7892 7894
1425.6191 7892 7891 7890 7889 7887 7886 7885 7886 7889 7888 7881 7864 7841
1431.8867 7811 7778 7740 7699 7658 7617 7576 7536 7492 7444 7398 7359 7329
1438.1542 7305 7284 7266 7251 7241 7234 7231 7230 7230 7232 7234 7237 7238
1444.4218 7236 7229 7215 7196 7168 7130 7076 7004 6920 6832 6745 6657 6560
1450.6892 6447 6313 6161 6006 5867 5756 5679 5635 5621 5642 5707 5834 6037
1456.9568 6299 6557 6758 6900 7005 7089 7160 7224 7281 7333 7378 7412 7434
1463.2242 7444 7443 7430 7405 7371 7335 7304 7280 7270 7275 7300 7344 7400
1469.4918 7461 7522 7583 7650 7733 7839 7954 8038 8071 8068 8048 8017 7973
1475.7593 7913 7835 7745 7651 7556 7458 7354 7244 7131 7020 6920 6842 6793
1482.0269 6776 6793 6839 6909 6991 7074 7153 7223 7287 7343 7386 7412 7417
1488.2943 7405 7377 7327 7247 7134 7006 6876 6743 6601 6444 6276 6104 5938
1494.5619 5784 5650 5546 5490 5494 5564 5710 5953 6302 6723 7143 7505 7802
1500.8293 8062 8315 8569 8806 9004 9154 9266 9360 9452 9556 9675 9789 9847
1507.0969 9844 9831 9829 9837 9851 9867 9884 9901 9917 9932 9947 9962 9975
1513.3644 9985 9994 10002 10010 10018 10024 10024 10016 10005 9998 9997 10000
1519.1498 10005 10012 10017 10015 9998 9971 9949 9938 9934 9934 9933 9931 9927
1525.4174 9922 9917 9914 9913 9912 9910 9908 9905 9903 9903 9904 9906 9907
1531.6848 9906 9899 9882 9856 9826 9802 9789 9783 9779 9775 9770 9766 9763
1537.9524 9767 9781 9807 9833 9839 9829 9825 9837 9860 9886 9906 9920 9929
1544.2198 9939 9953 9966 9974 9974 9966 9955 9941 9927 9912 9897 9881 9865
1550.4874 9849 9832 9815 9797 9780 9762 9742 9719 9694 9668 9646 9624 9603
1556.7549 9581 9557 9529 9500 9483 9484 9480 9464 9443 9421 9399 9376 9354
1563.0225 9331 9310 9289 9270 9252 9233 9212 9189 9164 9138 9114 9093 9080
1569.2899 9074 9069 9057 9038 9015 8990 8962 8932 8899 8865 8829 8794 8755
1575.5575 8706 8639 8558 8479 8407 8336 8263 8186 8106 8024 7940 7853 7762
1581.8250 7664 7562 7455 7347 7240 7136 7033 6932 6828 6720 6604 6479 6344
1588.0925 6200 6048 5890 5732 5581 5444 5328 5237 5175 5142 5140 5174 5247
1594.3601 5360 5509 5688 5892 6114 6350 6592 6832 7057 7260 7435 7579 7693
1600.6276 7777 7836 7873 7893 7898 7890 7868 7835 7791 7739 7680 7615 7545
1606.8951 7473 7400 7326 7250 7169 7081 6986 6889 6792 6695 6595 6490 6378
1613.1626 6263 6151 6048 5956 5870 5785 5697 5615 5561 5539 5541 5561 5601
1619.4302 5664 5748 5846 5947 6046 6147 6266 6415 6584 6729 6819 6858 6868
1625.6976 6863 6850 6833 6813 6791 6768 6745 6723 6701 6681 6662 6644 6625
1631.9652 6604 6580 6553 6522 6483 6426 6341 6226 6108 6010 5926 5844 5758
1638.2327 5670 5583 5500 5420 5340 5258 5174 5086 4995 4901 4808 4718 4632
1644.5002 4547 4459 4360 4244 4114 3986 3879 3794 3728 3675 3633 3599 3570
1650.7677 3543 3515 3485 3469 3533 3757 3980 4087 4146 4201 4268 4354 4459
1657.0353 4583 4722 4871 5024 5177 5328 5470 5604 5734 5875 6049 6266 6502
1663.3027 6709 6867 6991 7107 7232 7367 7505 7635 7756 7885 8051 8276 8541
1669.5703 8779 8955 9085 9203 9321 9431 9518 9579 9622 9666 9732 9834 9954
1675.8378 10048 10099 10125 10141 10159 10182 10213 10255 10304 10353 10394
1681.1411 10421 10435 10440 10444 10458 10505 10607 10704 10740 10743 10739
1686.4443 10738 10740 10744 10751 10760 10770 10780 10787 10793 10795 10796
1691.7477 10795 10791 10786 10779 10770 10760 10751 10747 10750 10751 10739
1697.0509 10715 10686 10657 10628 10601 10570 10519 10451 10393 10354 10325
1702.3542 10298 10271 10243 10214 10184 10157 10133 10112 10093 10076 10059
1707.6575 10044 10028 10013 9997 9981 9966 9953 9941 9929 9919 9908 9896 9885
1713.9250 9874 9865 9859 9854 9849 9842 9832 9824 9822 9829 9838 9843 9845
1720.1925 9844 9842 9840 9837 9836 9834 9832 9831 9829 9827 9826 9823 9820
1726.4601 9817 9813 9810 9808 9806 9804 9803 9799 9793 9785 9776 9767 9759
1732.7275 9752 9748 9746 9745 9741 9737 9731 9725 9719 9711 9704 9698 9693
1738.9951 9691 9691 9690 9687 9683 9679 9676 9675 9675 9675 9674 9672 9671
1745.2626 9670 9671 9673 9675 9676 9675 9670 9666 9663 9664 9667 9670 9671
1751.5302 9669 9666 9664 9664 9668 9675 9682 9690 9696 9701 9702 9702 9702
1757.7976 9703 9703 9704 9703 9701 9698 9696 9696 9700 9707 9713 9718 9722
1764.0652 9725 9728 9729 9730 9730 9729 9728 9729 9730 9730 9729 9726 9721
1770.3326 9718 9716 9717 9722 9726 9726 9722 9717 9712 9710 9710 9712 9715
1776.6002 9717 9717 9715 9710 9704 9697 9693 9691 9692 9695 9698 9700 9700
1782.8677 9699 9698 9697 9698 9700 9702 9704 9705 9706 9706 9706 9706 9706
1789.1353 9708 9710 9712 9711 9707 9701 9696 9695 9699 9705 9710 9711 9710
1795.4027 9707 9703 9700 9699 9698 9696 9692 9685 9678 9671 9668 9667 9669
1801.6703 9671 9672 9672 9671 9670 9669 9669 9670 9674 9677 9681 9683 9682
1807.9377 9680 9676 9674 9673 9675 9679 9684 9688 9692 9696 9699 9702 9705
1814.2053 9705 9703 9698 9692 9687 9684 9683 9686 9690 9694 9698 9702 9706
1820.4728 9710 9713 9715 9715 9713 9712 9712 9715 9720 9728 9736 9742 9743
1826.7404 9741 9736 9730 9727 9728 9739 9755 9771 9779 9779 9773 9766 9759
1833.0078 9753 9749 9748 9748 9749 9750 9750 9749 9748 9747 9749 9753 9757
1839.2754 9761 9763 9762 9760 9759 9758 9758 9759 9761 9765 9768 9769 9768
1845.5428 9766 9764 9762 9761 9762 9762 9760 9757 9754 9752 9752 9756 9760
1851.8104 9764 9765 9766 9765 9765 9765 9766 9768 9770 9773 9778 9783 9787
1858.0779 9791 9792 9790 9786 9781 9775 9770 9766 9762 9759 9754 9748 9740
1864.3455 9732 9725 9720 9719 9718 9718 9717 9713 9708 9703 9700 9701 9705
1870.6129 9712 9719 9726 9731 9735 9737 9738 9738 9735 9731 9724 9717 9712
1876.8805 9709 9710 9710 9708 9701 9689 9675 9663 9654 9652 9655 9662 9672
1883.1479 9685 9696 9706 9712 9714 9709 9700 9688 9673 9659 9648 9645 9654
1889.4155 9675 9703 9727 9742 9746 9741 9732 9722 9714 9711 9713 9720 9728
1895.6830 9735 9738 9737 9735 9737 9745 9759 9774 9784 9784 9775 9761 9749
1901.9506 9744 9747 9753 9757 9755 9746 9734 9722 9715 9714 9717 9720 9720
1908.2180 9719 9719 9724 9735 9749 9760 9764 9761 9754 9748 9746 9747 9747
1914.4856 9741 9731 9720 9713 9713 9719 9728 9733 9733 9730 9731 9737 9750
1920.7531 9765 9781 9793 9801 9804 9803 9798 9789 9775 9760 9748 9745 9754
1927.0206 9773 9795 9810 9814 9805 9791 9777 9768 9763 9759 9753 9746 9744
1933.2881 9752 9772 9798 9821 9828 9814 9785 9749 9720 9707 9711 9727 9746
1939.5557 9758 9757 9743 9717 9685 9654 9631 9617 9606 9592 9571 9545 9521
1945.8231 9508 9509 9522 9541 9558 9572 9583 9595 9607 9619 9630 9640 9651
1952.0907 9660 9665 9663 9654 9642 9633 9633 9645 9662 9680 9693 9702 9707
1958.3582 9713 9720 9727 9733 9736 9734 9728 9719 9708 9700 9700 9712 9736
1964.6257 9766 9795 9818 9834 9844 9852 9858 9860 9853 9839 9821 9805 9796
1970.8932 9792 9791 9794 9802 9821 9849 9879 9898 9894 9862 9809 9752 9713
1977.1608 9708 9743 9807 9877 9925 9934 9900 9842 9785 9754 9761 9802 9860
1983.4282 9916 9954 9970 9966 9950 9929 9907 9887 9870 9855 9843 9835 9831
1989.6958 9828 9823 9814 9803 9797 9804 9826 9859 9891 9912 9917 9903 9875
1995.9633 9837 9798 9766 9749 9754 9776 9807 9831 9838 9826 9806 9789 9783
2002.2308 9785 9787 9786 9784 9795 9829 9887 9956 10016 10050 10052 10035
2008.0162 10011 9993 9982 9972 9961 9947 9931 9917 9902 9883 9860 9834 9811
2014.2837 9799 9802 9821 9847 9868 9875 9866 9850 9839 9842 9858 9877 9887
2020.5513 9878 9850 9814 9784 9774 9791 9829 9876 9913 9925 9908 9870 9827
2026.8187 9800 9800 9828 9874 9921 9953 9956 9929 9879 9822 9776 9750 9742
2033.0863 9738 9724 9696 9659 9628 9614 9621 9642 9668 9692 9712 9732 9753
2039.3538 9779 9805 9828 9843 9847 9842 9832 9826 9828 9841 9862 9886 9905
2045.6213 9912 9904 9882 9850 9815 9782 9754 9733 9719 9714 9722 9743 9774
2051.8889 9810 9843 9865 9875 9875 9868 9859 9848 9834 9813 9787 9761 9743
2058.1563 9736 9742 9756 9771 9782 9785 9782 9776 9772 9774 9780 9788 9795
2064.4238 9796 9790 9780 9769 9760 9756 9756 9761 9767 9773 9778 9780 9780
2070.6914 9778 9775 9773 9770 9766 9760 9751 9743 9738 9739 9744 9752 9759
2076.9590 9764 9766 9768 9771 9776 9780 9782 9781 9779 9776 9775 9774 9772
2083.2263 9768 9762 9756 9755 9759 9768 9779 9787 9787 9779 9764 9747 9732
2089.4939 9720 9710 9702 9695 9691 9692 9699 9711 9725 9735 9741 9744 9746
2095.7615 9752 9761 9772 9778 9776 9765 9749 9734 9724 9721 9721 9723 9723
2102.0291 9723 9725 9733 9745 9759 9766 9763 9749 9730 9711 9697 9688 9683
2108.2964 9681 9679 9679 9682 9687 9694 9702 9710 9718 9726 9731 9732 9727
2114.5640 9719 9710 9704 9702 9704 9708 9711 9714 9717 9724 9735 9750 9766
2120.8315 9776 9780 9776 9770 9765 9763 9764 9764 9761 9756 9753 9755 9764
2127.0991 9778 9792 9803 9807 9804 9795 9782 9768 9759 9759 9770 9792 9817
2133.3665 9838 9848 9843 9826 9805 9786 9775 9773 9777 9785 9796 9808 9821
2139.6340 9833 9840 9839 9828 9812 9793 9776 9764 9756 9752 9753 9762 9787
2145.9016 9830 9888 9949 9996 10011 9988 9936 9877 9835 9826 9851 9897 9943
2152.1692 9971 9973 9949 9909 9863 9825 9805 9813 9849 9905 9959 9988 9980
2158.4365 9943 9900 9874 9874 9888 9900 9899 9885 9865 9846 9831 9823 9823
2164.7041 9830 9841 9853 9860 9863 9866 9874 9884 9888 9879 9857 9834 9826
2170.9717 9846 9890 9940 9974 9980 9960 9927 9893 9859 9823 9779 9732 9693
2177.2393 9676 9685 9715 9752 9785 9807 9815 9811 9796 9771 9743 9721 9712
2183.5066 9720 9739 9761 9775 9778 9773 9766 9762 9762 9766 9775 9792 9821
2189.7742 9858 9897 9921 9917 9883 9831 9783 9761 9770 9802 9833 9843 9822
2196.0417 9778 9731 9701 9700 9723 9760 9792 9807 9800 9776 9743 9712 9690
2202.3093 9680 9683 9695 9714 9733 9749 9757 9758 9751 9741 9729 9718 9711
2208.5767 9710 9717 9732 9750 9762 9763 9750 9729 9709 9698 9702 9714 9728
2214.8442 9738 9742 9743 9744 9744 9742 9736 9727 9716 9706 9700 9694 9685
2221.1118 9673 9660 9652 9654 9665 9681 9692 9692 9679 9660 9647 9646 9658
2227.3794 9676 9687 9683 9664 9639 9619 9615 9628 9653 9681 9704 9718 9725
2233.6467 9727 9726 9722 9715 9707 9698 9692 9688 9687 9687 9686 9683 9680
2239.9143 9676 9674 9674 9674 9672 9668 9664 9663 9668 9679 9693 9705 9711
2246.1819 9709 9698 9682 9664 9650 9642 9640 9644 9650 9654 9655 9654 9656
2252.4495 9666 9684 9708 9733 9751 9757 9750 9735 9717 9702 9694 9693 9699
2258.7168 9709 9720 9731 9741 9749 9757 9761 9761 9754 9741 9725 9709 9698
2264.9844 9695 9699 9706 9712 9714 9711 9703 9692 9680 9670 9663 9660 9662
2271.2520 9669 9678 9687 9694 9698 9698 9697 9694 9692 9691 9691 9690 9689
2277.5195 9686 9683 9680 9677 9674 9669 9661 9651 9639 9628 9621 9619 9622
2283.7869 9627 9635 9645 9655 9664 9673 9678 9677 9671 9659 9644 9628 9616
2290.0544 9611 9614 9623 9637 9649 9655 9653 9644 9632 9622 9619 9622 9630
2296.3220 9638 9642 9641 9635 9627 9619 9614 9612 9615 9622 9631 9641 9650
2302.5896 9655 9655 9651 9642 9631 9620 9610 9603 9600 9602 9607 9612 9616
2308.8569 9615 9613 9610 9609 9611 9615 9621 9628 9636 9642 9647 9648 9646
2315.1245 9641 9634 9630 9627 9626 9625 9623 9620 9619 9619 9619 9619 9617
2321.3921 9614 9612 9610 9609 9607 9603 9600 9598 9599 9604 9611 9619 9627
2327.6597 9633 9637 9636 9631 9623 9612 9601 9591 9582 9574 9566 9558 9554
2333.9270 9553 9558 9568 9581 9595 9605 9608 9604 9596 9587 9582 9583 9588
2340.1946 9594 9596 9593 9589 9585 9586 9591 9598 9604 9607 9609 9611 9616
2346.4622 9621 9624 9622 9615 9603 9590 9577 9566 9559 9559 9563 9571 9579
2352.7297 9586 9589 9589 9587 9582 9577 9572 9566 9555 9538 9517 9498 9491
2358.9971 9500 9528 9567 9604 9632 9646 9647 9641 9629 9611 9585 9551 9517
2365.2646 9490 9479 9486 9507 9534 9561 9583 9599 9611 9620 9628 9634 9637
2371.5322 9639 9641 9643 9645 9646 9644 9639 9634 9629 9627 9628 9631 9635
2377.7998 9638 9639 9639 9638 9638 9639 9642 9647 9650 9652 9650 9647 9642
2384.0671 9639 9639 9642 9647 9654 9661 9666 9669 9670 9669 9668 9665 9664
2390.3347 9663 9664 9666 9667 9668 9666 9662 9659 9658 9661 9667 9674 9680
2396.6023 9683 9682 9679 9674 9669 9664 9660 9656 9654 9654 9656 9662 9670
2402.8699 9676 9680 9680 9675 9668 9662 9658 9658 9661 9665 9669 9671 9672
2409.1372 9673 9674 9677 9680 9682 9681 9677 9672 9668 9667 9669 9673 9676
2415.4048 9676 9675 9672 9670 9671 9673 9677 9680 9682 9682 9682 9682 9683
2421.6724 9685 9689 9692 9692 9688 9680 9671 9661 9655 9651 9651 9653 9654
2427.9399 9656 9656 9658 9661 9667 9672 9677 9678 9676 9671 9665 9659 9654
2434.2073 9650 9647 9644 9642 9639 9639 9640 9643 9647 9652 9656 9657 9654
2440.4749 9649 9642 9635 9631 9629 9632 9638 9646 9652 9656 9655 9650 9640
2446.7424 9631 9624 9621 9625 9634 9645 9656 9664 9667 9664 9657 9650 9643
2453.0100 9640 9639 9639 9641 9641 9641 9640 9639 9637 9637 9636 9636 9636
2459.2773 9638 9640 9644 9649 9654 9657 9660 9660 9659 9658 9656 9654 9652
2465.5449 9650 9649 9648 9650 9655 9662 9669 9676 9680 9681 9678 9672 9664
2471.8125 9656 9649 9645 9644 9647 9653 9661 9668 9673 9675 9674 9670 9664
2478.0801 9659 9655 9655 9656 9659 9661 9661 9657 9651 9644 9636 9630 9627
2484.3474 9628 9633 9640 9649 9658 9663 9666 9667 9667 9666 9665 9663 9660
2490.6150 9656 9651 9647 9643 9641 9639 9636 9633 9631 9631 9632 9634 9636
2496.8826 9637 9636 9634 9633 9633 9636 9641 9648 9653 9655 9652 9645 9638
2503.1501 9633 9633 9636 9640 9642 9640 9636 9633 9632 9634 9639 9644 9648
2509.4175 9651 9653 9656 9659 9663 9665 9664 9659 9651 9641 9633 9630 9632
2515.6851 9637 9644 9649 9651 9651 9648 9645 9642 9639 9639 9641 9645 9652
2521.9526 9658 9663 9664 9661 9655 9648 9641 9637 9635 9636 9639 9644 9651
2528.2202 9659 9666 9670 9671 9668 9662 9656 9652 9650 9651 9655 9660 9665
2534.4875 9668 9669 9667 9664 9661 9658 9659 9662 9667 9673 9676 9675 9671
2540.7551 9665 9658 9654 9653 9656 9660 9665 9669 9672 9672 9671 9667 9663
2547.0227 9660 9658 9659 9662 9665 9668 9670 9670 9668 9664 9659 9653 9648
2553.2903 9644 9643 9643 9646 9648 9650 9649 9646 9641 9637 9635 9637 9642
2559.5576 9649 9655 9659 9659 9655 9649 9642 9637 9634 9634 9636 9638 9639
2565.8252 9637 9633 9628 9625 9625 9627 9630 9633 9636 9638 9641 9643 9645
2572.0928 9645 9643 9642 9640 9638 9636 9634 9631 9628 9625 9624 9624 9624
2578.3604 9625 9625 9624 9623 9621 9618 9615 9611 9606 9601 9595 9589 9584
2584.6279 9582 9582 9585 9588 9591 9591 9588 9584 9580 9578 9576 9576 9577
2590.8953 9580 9584 9589 9593 9595 9593 9589 9586 9585 9588 9594 9601 9607
2597.1628 9610 9611 9611 9613 9619 9625 9631 9634 9633 9629 9623 9617 9614
2603.4304 9614 9617 9620 9624 9627 9631 9635 9638 9640 9640 9636 9630 9623
2609.6980 9617 9615 9616 9620 9625 9628 9630 9629 9627 9625 9623 9623 9622
2615.9653 9621 9618 9614 9610 9606 9605 9606 9608 9610 9611 9611 9610 9611
2622.2329 9611 9613 9615 9615 9615 9615 9615 9616 9619 9621 9622 9619 9614
2628.5005 9609 9605 9605 9608 9611 9613 9613 9612 9610 9608 9606 9605 9604
2634.7681 9603 9601 9600 9600 9601 9604 9607 9610 9611 9611 9610 9607 9604
2641.0354 9602 9602 9603 9605 9607 9610 9613 9616 9619 9620 9620 9619 9617
2647.3030 9615 9614 9613 9613 9613 9614 9615 9616 9617 9617 9617 9616 9616
2653.5706 9616 9617 9619 9621 9624 9626 9629 9632 9636 9639 9642 9642 9641
2659.8381 9638 9635 9632 9630 9629 9629 9628 9626 9624 9623 9623 9626 9630
2666.1055 9635 9639 9641 9642 9641 9640 9639 9638 9637 9636 9637 9639 9642
2672.3730 9644 9645 9645 9643 9640 9638 9635 9633 9632 9632 9633 9635 9638
2678.6406 9641 9642 9642 9640 9639 9638 9638 9640 9643 9646 9649 9651 9653
2684.9082 9654 9654 9653 9650 9648 9647 9646 9648 9649 9651 9652 9653 9654
2691.1755 9654 9656 9657 9658 9658 9657 9655 9652 9650 9649 9649 9649 9647
2697.4431 9644 9639 9634 9628 9624 9622 9620 9619 9618 9617 9619 9622 9628
2703.7107 9635 9641 9645 9646 9646 9645 9645 9646 9648 9652 9654 9656 9655
2709.9783 9653 9650 9646 9643 9641 9641 9645 9651 9658 9664 9669 9672 9672
2716.2456 9670 9668 9667 9666 9666 9666 9666 9667 9667 9666 9667 9667 9669
2722.5132 9671 9674 9676 9677 9676 9675 9673 9671 9668 9666 9663 9660 9657
2728.7808 9656 9657 9659 9661 9663 9663 9661 9659 9657 9657 9658 9660 9661
2735.0483 9661 9657 9652 9648 9645 9645 9645 9646 9644 9641 9637 9632 9628
2741.3157 9625 9623 9624 9626 9630 9634 9639 9642 9644 9644 9642 9639 9635
2747.5833 9631 9627 9623 9620 9617 9617 9619 9623 9629 9635 9641 9646 9649
2753.8508 9651 9652 9652 9650 9647 9644 9640 9638 9637 9637 9638 9640 9642
2760.1184 9644 9645 9646 9646 9645 9643 9640 9638 9637 9636 9636 9636 9633
2766.3857 9630 9627 9626 9627 9629 9631 9631 9631 9629 9628 9626 9625 9625
2772.6533 9624 9623 9622 9621 9621 9621 9621 9621 9622 9622 9622 9622 9623
2778.9209 9624 9625 9626 9626 9625 9623 9621 9619 9618 9617 9616 9615 9615
2785.1885 9615 9615 9615 9615 9615 9614 9612 9608 9604 9599 9594 9590 9586
2791.4558 9584 9581 9579 9576 9573 9568 9563 9558 9554 9550 9546 9544 9542
2797.7234 9539 9536 9533 9529 9525 9521 9517 9513 9510 9508 9507 9507 9508
2803.9910 9507 9506 9503 9500 9498 9497 9496 9494 9491 9487 9483 9479 9476
2810.2585 9476 9476 9478 9479 9480 9481 9482 9484 9485 9486 9485 9484 9481
2816.5259 9478 9474 9472 9470 9469 9469 9471 9474 9478 9481 9483 9482 9478
2822.7935 9474 9470 9467 9465 9466 9466 9467 9466 9465 9464 9463 9461 9459
2829.0610 9457 9455 9455 9456 9457 9458 9458 9457 9453 9449 9444 9440 9437
2835.3286 9434 9432 9430 9427 9421 9414 9406 9397 9388 9382 9379 9378 9380
2841.5959 9383 9385 9385 9383 9378 9372 9365 9357 9350 9343 9337 9331 9327
2847.8635 9322 9318 9313 9308 9301 9293 9284 9273 9262 9251 9240 9231 9221
2854.1311 9211 9199 9185 9170 9153 9135 9116 9096 9074 9049 9022 8992 8959
2860.3987 8925 8890 8856 8822 8787 8749 8710 8667 8624 8583 8546 8516 8491
2866.6660 8472 8459 8450 8447 8450 8459 8475 8495 8517 8541 8565 8588 8612
2872.9336 8636 8661 8687 8714 8741 8768 8793 8815 8835 8851 8865 8877 8886
2879.2012 8894 8900 8903 8905 8904 8899 8892 8883 8872 8859 8843 8824 8803
2885.4688 8779 8754 8728 8702 8676 8649 8622 8597 8574 8554 8538 8524 8514
2891.7361 8507 8504 8503 8506 8511 8518 8527 8536 8545 8553 8561 8566 8569
2898.0037 8570 8572 8575 8581 8588 8597 8604 8608 8610 8611 8612 8614 8620
2904.2712 8628 8639 8651 8662 8674 8686 8697 8707 8716 8724 8729 8733 8738
2910.5388 8743 8749 8755 8760 8764 8765 8766 8765 8764 8762 8759 8755 8749
2916.8062 8744 8738 8732 8727 8722 8716 8710 8702 8693 8682 8670 8657 8645
2923.0737 8632 8620 8608 8596 8583 8570 8558 8548 8540 8535 8533 8532 8531
2929.3413 8530 8529 8528 8528 8530 8532 8535 8537 8538 8536 8532 8527 8520
2935.6089 8514 8509 8505 8501 8499 8499 8501 8504 8511 8519 8528 8538 8548
2941.8762 8558 8566 8572 8575 8576 8577 8577 8578 8578 8576 8570 8560 8543
2948.1438 8520 8489 8452 8408 8360 8308 8255 8204 8156 8116 8083 8058 8040
2954.4114 8026 8015 8005 7997 7991 7989 7991 7999 8013 8034 8060 8089 8118
2960.6790 8146 8171 8193 8212 8230 8246 8262 8278 8294 8312 8332 8355 8382
2966.9463 8413 8447 8483 8521 8558 8593 8626 8657 8688 8721 8757 8795 8834
2973.2139 8874 8914 8955 8996 9039 9081 9123 9162 9197 9228 9255 9278 9298
2979.4814 9317 9333 9348 9359 9366 9368 9367 9364 9362 9361 9362 9365 9368
2985.7490 9371 9373 9375 9378 9384 9392 9405 9420 9437 9454 9469 9483 9495
2992.0164 9508 9522 9540 9560 9582 9605 9627 9647 9664 9679 9693 9707 9723
2998.2839 9742 9763 9787 9810 9832 9851 9866 9878 9890 9901 9913 9923 9930
3004.5515 9935 9937 9941 9946 9953 9961 9967 9970 9968 9963 9957 9952 9949
3010.8191 9950 9952 9953 9950 9943 9931 9918 9905 9894 9886 9879 9873 9864
3017.0864 9853 9839 9822 9801 9779 9755 9731 9706 9681 9656 9629 9602 9576
3023.3540 9551 9530 9513 9500 9491 9486 9485 9487 9491 9496 9500 9503 9503
3029.6216 9502 9501 9504 9511 9523 9538 9552 9563 9572 9579 9586 9594 9603
3035.8892 9612 9618 9623 9624 9624 9623 9622 9622 9623 9625 9627 9630 9635
3042.1565 9642 9652 9664 9677 9690 9702 9713 9722 9729 9734 9739 9744 9751
3048.4241 9759 9767 9774 9779 9782 9783 9783 9780 9776 9770 9763 9755 9748
3054.6917 9742 9737 9733 9729 9723 9717 9711 9706 9702 9699 9699 9699 9699
3060.9592 9698 9696 9693 9690 9690 9691 9695 9699 9702 9704 9705 9705 9705
3067.2266 9704 9702 9699 9694 9689 9684 9682 9682 9683 9685 9687 9691 9697
3073.4941 9706 9718 9731 9747 9765 9785 9806 9829 9852 9872 9888 9901 9910
3079.7617 9917 9924 9931 9940 9952 9965 9979 9994 10008 10019 10027 10032
3085.5471 10036 10040 10043 10046 10047 10047 10044 10041 10040 10040 10041
3090.8503 10041 10042 10041 10042 10043 10044 10046 10047 10046 10043 10040
3096.1536 10037 10036 10038 10043 10050 10057 10063 10066 10067 10066 10063
3101.4570 10061 10061 10063 10067 10071 10074 10076 10076 10077 10079 10082
3106.7603 10087 10090 10091 10091 10089 10088 10090 10095 10101 10106 10109
3112.0635 10111 10113 10116 10122 10128 10133 10137 10138 10137 10135 10134
3117.3667 10134 10136 10138 10140 10142 10141 10140 10138 10136 10133 10130
3122.6702 10125 10118 10111 10106 10102 10101 10102 10106 10111 10116 10120
3127.9734 10123 10124 10121 10116 10111 10106 10104 10104 10108 10112 10116
3133.2766 10118 10118 10117 10116 10117 10120 10125 10131 10135 10136 10134
3138.5798 10129 10123 10117 10113 10110 10110 10111 10112 10113 10115 10116
3143.8833 10118 10120 10121 10121 10120 10118 10115 10112 10108 10106 10106
3149.1865 10108 10111 10114 10116 10115 10112 10106 10100 10094 10091 10089
3154.4897 10090 10091 10092 10092 10090 10087 10084 10082 10081 10080 10080
3159.7930 10078 10074 10069 10064 10060 10058 10059 10060 10061 10060 10057
3165.0964 10053 10050 10049 10050 10051 10051 10050 10048 10046 10043 10041
3170.3997 10039 10036 10032 10028 10025 10022 10020 10017 10013 10009 10004
3175.7029 10000 9998 9997 9998 9998 9998 9996 9994 9991 9987 9982 9977 9971
3181.9705 9966 9961 9957 9955 9955 9956 9958 9959 9959 9958 9957 9955 9953
3188.2380 9951 9949 9947 9944 9941 9937 9935 9934 9936 9939 9942 9943 9941
3194.5054 9936 9931 9928 9928 9932 9939 9945 9949 9947 9941 9933 9925 9919
3200.7729 9916 9915 9915 9916 9918 9919 9920 9917 9911 9901 9890 9881 9878
3207.0405 9879 9884 9889 9892 9893 9893 9894 9896 9901 9906 9910 9912 9912
3213.3081 9910 9906 9903 9901 9899 9899 9897 9894 9888 9881 9874 9870 9870
3219.5754 9873 9878 9880 9880 9877 9874 9872 9871 9873 9874 9874 9872 9870
3225.8430 9866 9864 9861 9861 9863 9868 9876 9883 9889 9890 9887 9881 9874
3232.1106 9869 9865 9861 9857 9852 9848 9847 9848 9850 9854 9858 9862 9865
3238.3782 9869 9872 9875 9877 9878 9878 9876 9871 9866 9860 9857 9857 9860
3244.6455 9863 9866 9867 9866 9862 9857 9853 9848 9846 9847 9850 9853 9856
3250.9131 9857 9855 9852 9851 9853 9857 9863 9869 9872 9874 9873 9872 9871
3257.1807 9869 9867 9865 9862 9860 9858 9856 9855 9854 9854 9854 9854 9855
3263.4482 9856 9859 9864 9871 9879 9886 9892 9894 9893 9890 9885 9880 9876
3269.7156 9874 9872 9871 9869 9867 9866 9865 9865 9866 9867 9868 9870 9872
3275.9832 9876 9880 9885 9888 9889 9889 9887 9885 9883 9882 9883 9884 9886
3282.2507 9888 9889 9889 9887 9884 9877 9867 9856 9846 9842 9846 9856 9868
3288.5183 9878 9882 9881 9877 9874 9872 9873 9875 9877 9876 9873 9868 9860
3294.7856 9852 9844 9839 9838 9841 9846 9851 9853 9853 9849 9845 9843 9845
3301.0532 9850 9858 9865 9872 9876 9877 9875 9870 9865 9859 9856 9855 9855
3307.3208 9857 9858 9857 9855 9852 9851 9853 9858 9864 9872 9878 9883 9886
3313.5884 9887 9886 9886 9887 9889 9893 9899 9905 9910 9915 9918 9919 9918
3319.8557 9917 9915 9914 9915 9918 9923 9930 9938 9945 9949 9951 9951 9951
3326.1233 9952 9956 9962 9967 9972 9975 9977 9981 9985 9991 9995 9998 10000
3332.3909 10001 10004 10008 10014 10021 10026 10030 10032 10031 10029 10025
3337.6941 10020 10015 10012 10012 10015 10019 10025 10031 10037 10043 10049
3342.9973 10056 10063 10067 10068 10066 10062 10057 10054 10052 10051 10050
3348.3008 10050 10050 10050 10052 10053 10054 10054 10053 10051 10050 10049
3353.6040 10048 10046 10044 10041 10038 10035 10032 10030 10028 10026 10024
3358.9072 10022 10020 10019 10018 10016 10012 10007 10001 9996 9992 9988 9984
3364.6926 9979 9972 9963 9954 9944 9935 9926 9917 9908 9898 9888 9879 9872
3370.9602 9867 9863 9859 9854 9846 9836 9824 9812 9799 9788 9777 9766 9755
3377.2278 9745 9735 9728 9723 9720 9716 9712 9706 9698 9688 9677 9667 9657
3383.4951 9648 9640 9632 9625 9619 9614 9611 9610 9608 9607 9606 9606 9605
3389.7627 9603 9599 9593 9584 9575 9566 9558 9553 9550 9550 9552 9555 9556
3396.0303 9554 9547 9536 9524 9515 9512 9515 9522 9530 9536 9537 9535 9532
3402.2979 9528 9527 9526 9525 9521 9513 9504 9496 9490 9489 9491 9496 9502
3408.5652 9507 9510 9511 9510 9507 9503 9499 9495 9492 9491 9492 9494 9497
3414.8328 9498 9496 9490 9481 9473 9469 9469 9475 9482 9489 9493 9492 9487
3421.1003 9481 9474 9470 9468 9469 9471 9475 9477 9478 9479 9478 9476 9473
3427.3679 9469 9465 9461 9458 9458 9459 9461 9462 9463 9462 9462 9462 9463
3433.6353 9464 9465 9466 9466 9465 9464 9462 9459 9456 9453 9451 9451 9450
3439.9028 9449 9445 9440 9435 9433 9434 9438 9444 9448 9449 9447 9445 9444
3446.1704 9445 9448 9450 9451 9451 9451 9452 9454 9456 9457 9456 9453 9450
3452.4380 9449 9450 9454 9459 9462 9463 9460 9456 9450 9446 9443 9441 9442
3458.7053 9442 9443 9442 9442 9443 9444 9446 9448 9448 9446 9442 9437 9431
3464.9729 9427 9424 9421 9419 9418 9418 9421 9425 9430 9435 9437 9437 9434
3471.2405 9432 9429 9428 9429 9432 9434 9436 9438 9438 9437 9436 9434 9432
3477.5081 9431 9429 9429 9429 9430 9431 9431 9430 9430 9430 9431 9433 9438
3483.7754 9443 9448 9451 9450 9444 9435 9426 9419 9417 9419 9422 9424 9424
3490.0430 9424 9424 9426 9431 9435 9437 9437 9434 9429 9424 9419 9416 9415
3496.3105 9416 9419 9423 9428 9432 9434 9435 9433 9428 9422 9416 9412 9412
3502.5781 9416 9423 9429 9432 9432 9430 9427 9427 9428 9430 9431 9431 9429
3508.8455 9425 9421 9415 9411 9408 9408 9412 9420 9429 9435 9437 9434 9429
3515.1130 9424 9421 9421 9424 9425 9424 9421 9417 9414 9412 9413 9415 9417
3521.3806 9417 9417 9416 9416 9417 9418 9418 9417 9414 9410 9408 9409 9413
3527.6482 9418 9424 9427 9429 9431 9431 9432 9432 9431 9428 9424 9421 9419
3533.9155 9418 9419 9421 9425 9430 9434 9437 9436 9431 9423 9414 9407 9404
3540.1831 9405 9409 9412 9413 9411 9407 9402 9397 9394 9392 9391 9391 9390
3546.4507 9387 9384 9382 9381 9383 9388 9394 9399 9403 9405 9405 9404 9403
3552.7183 9402 9401 9400 9399 9400 9401 9402 9404 9405 9406 9406 9405 9404
3558.9856 9401 9398 9396 9395 9396 9397 9398 9397 9393 9386 9379 9375 9375
3565.2532 9383 9397 9412 9424 9426 9420 9409 9399 9392 9389 9390 9393 9398
3571.5208 9402 9404 9403 9400 9396 9392 9389 9388 9388 9389 9388 9386 9382
3577.7883 9378 9374 9372 9373 9377 9381 9384 9383 9380 9374 9368 9363 9358
3584.0559 9355 9353 9354 9357 9363 9370 9378 9383 9387 9387 9384 9378 9369
3590.3232 9361 9355 9354 9359 9369 9381 9391 9395 9395 9392 9389 9387 9385
3596.5908 9382 9378 9371 9364 9358 9353 9351 9352 9354 9356 9359 9362 9366
3602.8584 9368 9368 9364 9357 9349 9342 9338 9338 9340 9342 9344 9348 9354
3609.1260 9362 9367 9369 9365 9358 9351 9350 9357 9370 9383 9390 9386 9373
3615.3933 9356 9339 9326 9319 9319 9325 9334 9346 9357 9365 9368 9367 9363
3621.6609 9358 9354 9353 9353 9354 9354 9352 9349 9344 9338 9332 9328 9328
3627.9285 9337 9355 9375 9382 9376 9364 9352 9342 9333 9327 9324 9327 9333
3634.1960 9341 9348 9351 9350 9345 9338 9330 9325 9322 9321 9320 9319 9318
3640.4634 9319 9321 9324 9327 9329 9328 9324 9318 9311 9305 9301 9298 9297
3646.7310 9294 9288 9281 9280 9290 9313 9344 9367 9370 9357 9339 9323 9311
3652.9985 9303 9298 9295 9296 9303 9314 9326 9329 9324 9314 9305 9300 9300
3659.2661 9303 9306 9308 9311 9314 9318 9322 9324 9323 9321 9319 9317 9315
3665.5334 9310 9302 9292 9284 9280 9285 9298 9316 9332 9338 9334 9324 9314
3671.8010 9307 9303 9300 9299 9300 9306 9323 9349 9366 9366 9355 9341 9328
3678.0686 9320 9317 9321 9326 9328 9324 9317 9309 9303 9302 9305 9310 9315
3684.3362 9319 9319 9316 9312 9308 9306 9307 9311 9316 9319 9319 9319 9320
3690.6035 9322 9324 9324 9322 9320 9319 9319 9321 9324 9326 9327 9327 9325
3696.8711 9323 9319 9316 9312 9307 9302 9296 9294 9296 9306 9319 9329 9332
3703.1387 9329 9324 9319 9318 9321 9325 9327 9326 9322 9317 9314 9313 9313
3709.4063 9313 9312 9310 9311 9320 9333 9344 9347 9344 9337 9330 9325 9321
3715.6736 9317 9314 9311 9309 9310 9315 9321 9327 9328 9325 9320 9316 9316
3721.9412 9321 9326 9329 9327 9324 9321 9322 9326 9328 9325 9317 9309 9302
3728.2087 9299 9299 9299 9300 9300 9303 9309 9318 9324 9325 9318 9308 9298
3734.4763 9292 9291 9293 9297 9302 9308 9314 9318 9318 9316 9313 9313 9317
3740.7437 9321 9321 9315 9303 9291 9286 9299 9337 9373 9381 9368 9349 9332
3747.0112 9318 9308 9304 9306 9317 9330 9341 9349 9357 9365 9374 9377 9372
3753.2788 9362 9350 9339 9333 9331 9333 9335 9334 9328 9319 9312 9311 9317
3759.5464 9329 9339 9342 9340 9335 9330 9326 9323 9321 9321 9326 9336 9349
3765.8137 9359 9359 9351 9337 9322 9312 9310 9317 9331 9340 9342 9336 9330
3772.0813 9325 9325 9330 9335 9339 9338 9332 9323 9315 9309 9307 9309 9315
3778.3489 9323 9330 9337 9340 9339 9337 9334 9329 9325 9322 9321 9323 9327
3784.6165 9331 9334 9334 9331 9327 9323 9319 9316 9316 9319 9325 9331 9335
3790.8838 9337 9335 9331 9328 9327 9327 9328 9326 9323 9320 9320 9326 9335
3797.1514 9343 9345 9340 9330 9317 9305 9299 9305 9326 9353 9369 9370 9362
3803.4189 9349 9335 9322 9313 9309 9315 9329 9344 9351 9347 9338 9327 9317
3809.6865 9311 9309 9310 9313 9318 9321 9321 9317 9311 9305 9303 9310 9328
3815.9539 9346 9353 9346 9332 9318 9306 9302 9309 9331 9363 9389 9390 9372
3822.2214 9351 9335 9325 9320 9319 9318 9318 9319 9320 9322 9324 9325 9324
3828.4890 9320 9316 9311 9308 9310 9317 9326 9332 9332 9326 9319 9313 9310
3834.7566 9310 9313 9317 9323 9334 9349 9363 9371 9370 9363 9355 9346 9335
3841.0239 9324 9313 9305 9304 9310 9322 9335 9343 9346 9345 9343 9340 9336
3847.2915 9331 9324 9315 9308 9302 9300 9298 9297 9293 9286 9279 9281 9302
3853.5591 9337 9362 9369 9364 9354 9343 9336 9332 9330 9328 9323 9316 9309
3859.8267 9305 9307 9315 9325 9332 9333 9331 9330 9336 9350 9368 9378 9374
3866.0940 9361 9344 9327 9314 9306 9308 9321 9344 9362 9366 9358 9345 9331
3872.3616 9317 9308 9307 9315 9325 9333 9334 9331 9324 9315 9306 9297 9290
3878.6292 9289 9297 9315 9338 9354 9356 9349 9337 9324 9312 9302 9295 9295
3884.8967 9303 9318 9334 9343 9344 9339 9331 9322 9312 9304 9299 9299 9306
3891.1641 9320 9335 9346 9352 9355 9354 9352 9348 9342 9334 9326 9318 9313
3897.4316 9312 9316 9323 9330 9332 9329 9323 9318 9315 9315 9316 9316 9316
3903.6992 9316 9320 9328 9337 9344 9345 9342 9336 9329 9322 9319 9318 9321
3909.9668 9325 9330 9333 9334 9333 9330 9327 9322 9317 9313 9312 9315 9321
3916.2341 9329 9337 9339 9338 9334 9332 9333 9336 9341 9343 9342 9339 9333
3922.5017 9328 9324 9323 9324 9328 9333 9336 9338 9336 9333 9330 9327 9326
3928.7693 9329 9333 9339 9344 9349 9351 9353 9354 9354 9354 9354 9354 9354
3935.0369 9352 9349 9343 9335 9329 9325 9325 9330 9335 9338 9337 9334 9331
3941.3042 9329 9330 9334 9337 9339 9339 9338 9335 9330 9325 9320 9317 9317
3947.5718 9322 9329 9338 9346 9350 9350 9348 9345 9342 9339 9337 9334 9332
3953.8394 9329 9328 9329 9331 9333 9333 9332 9329 9328 9330 9334 9338 9341
3960.1069 9341 9339 9337 9336 9336 9338 9339 9338 9336 9335 9335 9336 9339
3966.3743 9342 9344 9345 9344 9342 9342 9343 9344 9345 9344 9340 9335 9330
3972.6418 9327 9329 9334 9340 9346 9349 9351 9350 9349 9347 9345 9341 9337
3978.9094 9331 9326 9324 9325 9329 9336 9344 9349 9353 9354 9353 9350 9346
3985.1770 9340 9335 9332 9330 9330 9328 9325 9320 9316 9317 9324 9334 9344
3991.4443 9350 9351 9348 9342 9336 9332 9330 9331 9334 9338 9343 9347 9349
3997.7119 9349 9347 9345 9344 9345 9346
##END= 
