##TITLE= STDDAPSONE
##JCAMP-DX= 4.24
##DATA TYPE= INFRARED SPECTRUM
##ORIGIN= JASCO
##OWNER= 
##DATE= 22/03/31
##TIME= 09:17:59
##SPECTROMETER/DATA SYSTEM= 
##RESOLUTION= 
##DELTAX=   0.48211674
##XUNITS= 1/CM
##YUNITS= TRANSMITTANCE
##XFACTOR= 1.00000
##YFACTOR= 0.0001
##FIRSTX=   599.7532
##LASTX=  4000.1226
##NPOINTS=     7054
##FIRSTY=      0.74467
##MAXY=      1.03572
##MINY=      0.55414
##XYDATA= (X++(Y..Y))
599.7532 7447 7471 7473 7452 7418 7382 7352 7330 7313 7301 7292 7290 7296 7308
606.5029 7321 7331 7333 7327 7315 7303 7292 7280 7266 7247 7225 7205 7193 7191
613.2525 7196 7203 7209 7213 7218 7228 7239 7247 7244 7227 7200 7172 7150 7139
620.0021 7138 7142 7143 7139 7129 7117 7107 7101 7094 7080 7054 7014 6968 6930
626.7518 6908 6906 6917 6927 6924 6902 6862 6815 6767 6718 6659 6581 6481 6371
633.5014 6280 6241 6280 6399 6576 6772 6944 7063 7120 7123 7087 7028 6962 6898
640.2510 6844 6802 6770 6744 6720 6692 6660 6622 6578 6532 6488 6454 6437 6440
647.0007 6464 6505 6557 6615 6675 6739 6809 6889 6978 7070 7153 7219 7259 7275
653.7503 7273 7262 7251 7241 7232 7221 7208 7193 7179 7166 7152 7138 7124 7109
660.4999 7094 7078 7059 7035 7010 6985 6966 6954 6944 6934 6917 6894 6863 6824
667.2496 6771 6702 6636 6606 6607 6614 6618 6616 6606 6585 6554 6517 6481 6454
673.9992 6437 6425 6413 6391 6357 6314 6266 6220 6180 6148 6125 6110 6099 6088
680.7488 6073 6055 6034 6014 5993 5968 5933 5887 5834 5782 5738 5706 5680 5655
687.4985 5627 5599 5576 5564 5561 5562 5561 5558 5558 5570 5603 5659 5737 5835
694.2481 5950 6079 6218 6363 6507 6646 6778 6906 7028 7141 7241 7323 7390 7448
700.9977 7504 7559 7610 7652 7678 7693 7700 7707 7715 7722 7723 7715 7696 7669
707.7474 7637 7604 7569 7531 7490 7446 7398 7347 7294 7236 7171 7098 7014 6921
714.4970 6825 6734 6658 6606 6581 6586 6614 6657 6702 6737 6753 6743 6710 6659
721.2466 6601 6541 6483 6428 6380 6344 6326 6330 6359 6410 6476 6551 6624 6690
727.9963 6742 6780 6810 6837 6868 6906 6952 7002 7052 7097 7136 7175 7216 7264
734.7459 7320 7382 7447 7510 7571 7630 7691 7756 7825 7901 7983 8070 8163 8259
741.4955 8354 8447 8539 8636 8743 8863 8994 9130 9264 9390 9506 9615 9718 9815
748.2452 9905 9984 10050 10103 10139 10155 10145 10108 10049 9979 9915 9869
754.0306 9845 9838 9836 9833 9828 9827 9838 9861 9883 9887 9863 9816 9770 9749
760.7802 9771 9839 9941 10058 10166 10252 10310 10343 10357 10353 10327 10278
766.5656 10204 10108 9996 9874 9749 9627 9512 9404 9302 9203 9105 9009 8919
772.8331 8840 8776 8727 8690 8662 8636 8608 8575 8537 8496 8457 8422 8397 8381
779.5828 8374 8372 8373 8377 8385 8397 8411 8423 8429 8426 8418 8408 8401 8399
786.3324 8399 8400 8399 8398 8397 8399 8404 8410 8414 8414 8410 8402 8393 8384
793.0820 8378 8375 8373 8371 8370 8370 8370 8370 8369 8364 8355 8343 8329 8315
799.8317 8301 8289 8277 8265 8254 8244 8233 8221 8208 8194 8179 8163 8146 8128
806.5813 8108 8086 8063 8036 8003 7963 7916 7862 7808 7757 7712 7672 7631 7587
813.3309 7535 7475 7408 7336 7258 7171 7072 6961 6839 6707 6567 6423 6276 6132
820.0806 5998 5886 5805 5760 5750 5768 5804 5851 5903 5960 6020 6084 6150 6215
826.8302 6276 6332 6384 6434 6486 6538 6593 6649 6706 6762 6816 6867 6918 6975
833.5798 7048 7142 7263 7405 7559 7711 7849 7964 8053 8120 8172 8216 8259 8304
840.3295 8351 8396 8436 8468 8495 8522 8554 8592 8637 8686 8734 8780 8821 8858
847.0791 8892 8921 8945 8966 8984 9003 9024 9047 9069 9086 9097 9100 9098 9094
853.8287 9089 9086 9084 9085 9088 9092 9097 9103 9107 9110 9111 9109 9104 9096
860.5784 9084 9069 9052 9038 9028 9027 9031 9041 9050 9055 9054 9046 9035 9023
867.3280 9016 9015 9020 9029 9038 9044 9045 9042 9036 9028 9021 9016 9014 9017
874.0776 9022 9026 9026 9019 9008 8996 8987 8982 8981 8980 8975 8969 8962 8961
880.8273 8967 8981 8998 9015 9026 9028 9023 9011 8995 8979 8966 8956 8951 8950
887.5769 8951 8951 8951 8950 8949 8947 8945 8944 8943 8944 8946 8946 8946 8943
894.3265 8938 8933 8930 8931 8934 8936 8935 8929 8918 8906 8896 8892 8893 8899
901.0762 8905 8909 8910 8907 8901 8894 8886 8879 8874 8872 8870 8869 8866 8864
907.8258 8863 8865 8868 8872 8873 8870 8865 8859 8855 8854 8855 8858 8860 8860
914.5754 8857 8852 8845 8837 8830 8824 8820 8817 8815 8813 8811 8811 8811 8809
921.3251 8806 8800 8794 8788 8784 8783 8782 8781 8777 8771 8763 8755 8748 8741
928.0747 8735 8729 8721 8714 8707 8699 8693 8687 8682 8676 8671 8666 8662 8661
934.8243 8662 8664 8665 8664 8661 8654 8646 8636 8624 8612 8600 8586 8572 8557
941.5740 8541 8526 8512 8502 8497 8496 8497 8499 8499 8494 8482 8462 8434 8399
948.3236 8362 8331 8313 8314 8336 8373 8419 8463 8499 8522 8533 8535 8532 8526
955.0732 8519 8509 8497 8480 8457 8428 8394 8361 8333 8316 8316 8330 8355 8381
961.8229 8402 8412 8409 8397 8381 8369 8366 8374 8391 8413 8436 8455 8468 8474
968.5725 8477 8478 8479 8481 8483 8482 8477 8468 8457 8445 8436 8430 8427 8424
975.3221 8422 8420 8420 8422 8425 8428 8429 8426 8418 8407 8395 8384 8377 8372
982.0718 8370 8368 8364 8358 8352 8345 8340 8335 8330 8323 8314 8304 8294 8286
988.8214 8281 8279 8278 8277 8276 8274 8271 8267 8263 8256 8249 8242 8235 8229
995.5710 8225 8222 8217 8209 8197 8183 8168 8153 8140 8128 8118 8106 8091 8070
1002.3207 8041 8002 7955 7904 7856 7819 7798 7795 7809 7835 7868 7904 7940
1008.5882 7976 8010 8041 8069 8092 8111 8124 8132 8135 8133 8127 8118 8109
1014.8557 8100 8092 8086 8082 8079 8075 8070 8063 8055 8046 8039 8034 8032
1021.1232 8033 8034 8034 8032 8029 8024 8017 8010 8002 7994 7986 7979 7972
1027.3907 7966 7962 7958 7953 7948 7943 7937 7930 7924 7917 7909 7902 7895
1033.6583 7889 7884 7879 7872 7864 7854 7843 7833 7824 7816 7808 7798 7788
1039.9258 7776 7767 7760 7756 7753 7752 7748 7740 7728 7714 7698 7684 7672
1046.1934 7663 7657 7651 7645 7637 7626 7613 7599 7583 7566 7549 7532 7517
1052.4608 7502 7490 7478 7467 7455 7442 7428 7413 7398 7382 7365 7347 7329
1058.7284 7310 7291 7271 7249 7225 7199 7172 7145 7117 7089 7059 7027 6992
1064.9958 6954 6913 6868 6820 6767 6709 6644 6574 6503 6436 6379 6340 6322
1071.2634 6331 6370 6440 6540 6661 6793 6920 7029 7111 7166 7197 7211 7214
1077.5309 7209 7198 7179 7154 7123 7089 7054 7022 6993 6968 6944 6920 6895
1083.7985 6868 6839 6809 6780 6753 6728 6704 6680 6655 6629 6601 6572 6541
1090.0659 6512 6483 6457 6433 6409 6383 6355 6326 6297 6271 6248 6225 6198
1096.3335 6165 6124 6078 6029 5981 5936 5896 5859 5826 5797 5772 5752 5739
1102.6010 5734 5738 5752 5776 5809 5852 5908 5976 6058 6151 6255 6366 6481
1108.8685 6597 6712 6822 6928 7028 7124 7217 7306 7390 7465 7529 7579 7616
1115.1360 7641 7655 7661 7660 7653 7640 7622 7600 7574 7545 7511 7474 7434
1121.4036 7393 7352 7311 7271 7228 7181 7130 7076 7021 6966 6911 6854 6795
1127.6710 6733 6668 6602 6536 6471 6407 6343 6280 6216 6154 6095 6039 5987
1133.9386 5939 5895 5853 5812 5775 5739 5708 5679 5652 5628 5606 5586 5569
1140.2061 5556 5548 5543 5541 5543 5548 5558 5578 5610 5660 5729 5822 5939
1146.4736 6080 6246 6433 6638 6854 7075 7294 7504 7701 7883 8052 8208 8354
1152.7411 8491 8618 8736 8843 8940 9027 9105 9172 9228 9274 9308 9333 9352
1159.0087 9366 9379 9390 9398 9404 9408 9411 9413 9416 9419 9422 9424 9423
1165.2761 9420 9413 9405 9397 9389 9381 9375 9370 9366 9361 9355 9347 9336
1171.5437 9324 9311 9297 9282 9266 9248 9225 9198 9163 9116 9055 8979 8892
1177.8112 8810 8748 8724 8748 8816 8914 9021 9117 9188 9231 9249 9248 9234
1184.0787 9213 9190 9170 9154 9145 9140 9138 9136 9133 9131 9130 9130 9130
1190.3462 9130 9129 9126 9124 9122 9122 9122 9121 9120 9117 9113 9108 9104
1196.6138 9100 9097 9094 9092 9089 9084 9076 9067 9056 9046 9037 9029 9024
1202.8812 9019 9014 9008 9001 8993 8984 8975 8966 8958 8951 8943 8934 8924
1209.1488 8912 8900 8888 8878 8870 8864 8860 8855 8850 8842 8833 8823 8813
1215.4163 8803 8795 8789 8783 8777 8769 8761 8751 8741 8732 8723 8714 8706
1221.6838 8697 8687 8678 8669 8661 8653 8645 8636 8624 8612 8599 8587 8577
1227.9513 8569 8563 8557 8551 8543 8534 8523 8511 8498 8487 8477 8467 8456
1234.2189 8444 8429 8414 8400 8387 8377 8369 8361 8352 8340 8327 8312 8295
1240.4863 8279 8263 8248 8233 8218 8204 8190 8176 8163 8149 8134 8119 8104
1246.7539 8089 8074 8059 8045 8032 8019 8008 7997 7987 7977 7966 7955 7942
1253.0214 7930 7919 7907 7895 7882 7867 7852 7835 7816 7794 7768 7735 7694
1259.2889 7646 7589 7525 7454 7377 7293 7204 7113 7023 6937 6863 6807 6777
1265.5564 6779 6808 6851 6883 6875 6811 6695 6552 6408 6283 6186 6112 6055
1271.8240 6006 5961 5918 5878 5843 5817 5802 5804 5829 5883 5969 6087 6235
1278.0914 6405 6590 6780 6967 7147 7314 7465 7601 7720 7822 7909 7981 8039
1284.3590 8085 8118 8140 8152 8156 8153 8144 8130 8112 8091 8069 8045 8020
1290.6265 7993 7967 7943 7922 7907 7898 7898 7906 7922 7948 7984 8029 8080
1296.8940 8136 8192 8245 8292 8330 8359 8377 8382 8376 8361 8341 8322 8308
1303.1615 8306 8316 8337 8366 8397 8428 8455 8480 8506 8536 8574 8620 8673
1309.4291 8732 8794 8856 8916 8973 9025 9074 9117 9156 9190 9220 9246 9268
1315.6965 9288 9305 9319 9331 9339 9344 9347 9348 9349 9349 9349 9348 9345
1321.9641 9339 9330 9320 9309 9299 9289 9279 9269 9257 9245 9233 9222 9212
1328.2316 9203 9193 9184 9174 9163 9151 9138 9125 9110 9094 9077 9060 9042
1334.4991 9023 9004 8984 8966 8949 8935 8926 8922 8926 8937 8957 8983 9011
1340.7666 9039 9063 9085 9104 9122 9138 9152 9165 9175 9184 9191 9196 9198
1347.0342 9198 9195 9191 9185 9179 9173 9168 9163 9159 9156 9153 9151 9148
1353.3016 9145 9141 9136 9130 9123 9117 9111 9106 9103 9101 9100 9099 9098
1359.5692 9095 9089 9081 9072 9063 9056 9055 9058 9064 9070 9074 9075 9075
1365.8367 9074 9073 9071 9069 9066 9062 9058 9055 9052 9052 9052 9053 9054
1372.1042 9054 9053 9050 9047 9044 9042 9043 9045 9047 9049 9051 9052 9052
1378.3717 9052 9051 9048 9044 9040 9035 9031 9029 9028 9029 9030 9031 9032
1384.6393 9030 9025 9018 9009 9001 8996 8994 8996 8998 8999 8998 8996 8993
1390.9067 8990 8988 8985 8983 8980 8977 8974 8973 8975 8978 8980 8981 8980
1397.1743 8977 8974 8971 8971 8971 8972 8970 8967 8963 8959 8954 8949 8943
1403.4418 8937 8931 8927 8926 8925 8925 8922 8917 8910 8902 8895 8890 8885
1409.7094 8882 8878 8873 8867 8862 8857 8852 8847 8842 8836 8829 8821 8810
1415.9768 8798 8784 8769 8754 8740 8725 8710 8697 8685 8675 8664 8652 8637
1422.2444 8618 8596 8571 8546 8524 8506 8489 8472 8453 8430 8405 8379 8351
1428.5118 8321 8288 8252 8215 8181 8153 8128 8108 8092 8082 8080 8084 8093
1434.7794 8105 8124 8160 8226 8317 8403 8466 8511 8547 8583 8620 8656 8691
1441.0469 8720 8743 8762 8777 8788 8796 8802 8805 8805 8802 8797 8792 8789
1447.3145 8790 8796 8803 8806 8806 8803 8797 8792 8786 8781 8777 8772 8768
1453.5819 8763 8757 8751 8745 8738 8731 8725 8722 8724 8728 8731 8731 8729
1459.8495 8724 8719 8713 8708 8702 8697 8690 8683 8676 8669 8665 8663 8662
1466.1169 8659 8655 8650 8644 8638 8633 8626 8619 8608 8596 8582 8568 8556
1472.3845 8549 8544 8538 8528 8515 8502 8489 8476 8466 8457 8448 8437 8423
1478.6520 8405 8384 8361 8337 8311 8285 8257 8230 8202 8174 8143 8109 8072
1484.9196 8032 7990 7943 7892 7837 7783 7736 7695 7654 7604 7538 7462 7392
1491.1870 7339 7302 7277 7260 7252 7251 7258 7276 7311 7368 7443 7519 7579
1497.4546 7626 7671 7726 7792 7862 7928 7991 8057 8132 8219 8307 8388 8454
1503.7220 8505 8545 8580 8615 8656 8713 8780 8835 8871 8897 8918 8935 8947
1509.9896 8956 8962 8964 8966 8967 8968 8968 8965 8958 8948 8936 8924 8913
1516.2571 8907 8906 8906 8903 8895 8884 8869 8852 8834 8816 8807 8809 8814
1522.5247 8815 8810 8802 8792 8783 8774 8767 8760 8752 8743 8734 8725 8717
1528.7921 8710 8702 8694 8683 8670 8655 8640 8627 8617 8611 8612 8614 8614
1535.0597 8611 8604 8594 8580 8563 8544 8522 8500 8483 8482 8494 8504 8503
1541.3271 8494 8482 8471 8463 8456 8450 8444 8439 8434 8429 8424 8416 8407
1547.5947 8396 8383 8371 8358 8347 8339 8331 8321 8309 8294 8276 8258 8238
1553.8622 8221 8208 8199 8190 8178 8163 8142 8117 8085 8055 8051 8074 8082
1560.1298 8072 8054 8035 8014 7993 7970 7945 7919 7893 7866 7841 7817 7792
1566.3972 7767 7740 7713 7684 7652 7615 7573 7530 7492 7458 7423 7384 7338
1572.6648 7285 7228 7172 7118 7063 7001 6926 6852 6807 6797 6805 6816 6821
1578.9323 6819 6807 6784 6750 6708 6662 6615 6569 6526 6485 6446 6410 6376
1585.1998 6346 6321 6305 6299 6308 6333 6375 6434 6509 6594 6685 6778 6869
1591.4674 6954 7033 7105 7173 7239 7305 7374 7444 7515 7585 7656 7729 7805
1597.7349 7883 7962 8043 8124 8205 8285 8362 8434 8500 8560 8614 8662 8703
1604.0024 8737 8762 8781 8793 8800 8802 8799 8791 8779 8763 8744 8723 8700
1610.2699 8676 8652 8627 8600 8572 8540 8507 8472 8438 8404 8370 8331 8280
1616.5375 8217 8155 8107 8070 8037 8003 7964 7921 7877 7834 7793 7753 7711
1622.8049 7667 7627 7596 7575 7561 7548 7535 7525 7519 7522 7537 7563 7592
1629.0725 7621 7648 7676 7707 7743 7781 7819 7852 7878 7900 7921 7951 8002
1635.3400 8077 8158 8218 8262 8300 8338 8379 8421 8462 8503 8543 8584 8626
1641.6075 8666 8703 8735 8763 8787 8807 8826 8846 8870 8901 8938 8978 9015
1647.8750 9048 9076 9098 9113 9123 9128 9128 9126 9121 9112 9109 9140 9190
1654.1426 9225 9246 9260 9271 9279 9287 9293 9299 9304 9310 9315 9319 9321
1660.4100 9322 9320 9317 9314 9316 9323 9334 9345 9354 9361 9366 9369 9369
1666.6776 9368 9365 9362 9360 9363 9369 9377 9382 9385 9388 9391 9393 9395
1672.9451 9395 9392 9387 9383 9381 9385 9390 9394 9396 9395 9394 9392 9391
1679.2126 9389 9387 9386 9385 9382 9378 9371 9359 9341 9318 9307 9322 9345
1685.4801 9359 9365 9366 9365 9362 9359 9357 9357 9359 9364 9370 9374 9376
1691.7477 9375 9371 9364 9357 9349 9340 9330 9320 9313 9313 9318 9324 9328
1698.0151 9330 9333 9336 9341 9345 9342 9334 9328 9323 9319 9315 9311 9307
1704.2827 9302 9298 9294 9292 9293 9297 9302 9306 9308 9307 9304 9300 9296
1710.5502 9294 9293 9292 9291 9288 9284 9279 9274 9269 9266 9262 9256 9250
1716.8177 9245 9244 9250 9260 9270 9276 9280 9282 9284 9284 9284 9281 9276
1723.0852 9271 9268 9266 9267 9268 9270 9271 9271 9271 9268 9264 9259 9254
1729.3528 9252 9251 9252 9253 9251 9248 9242 9236 9231 9229 9233 9238 9242
1735.6202 9243 9243 9241 9238 9234 9229 9226 9226 9229 9233 9235 9232 9226
1741.8878 9220 9213 9209 9208 9210 9211 9210 9206 9200 9190 9180 9170 9163
1748.1553 9160 9160 9161 9161 9161 9162 9166 9172 9177 9180 9180 9178 9174
1754.4229 9171 9167 9165 9163 9163 9164 9168 9171 9174 9174 9173 9168 9162
1760.6903 9154 9148 9146 9148 9151 9153 9153 9152 9149 9148 9146 9145 9143
1766.9579 9142 9142 9143 9145 9146 9144 9139 9131 9121 9112 9109 9115 9124
1773.2253 9130 9133 9133 9132 9132 9132 9134 9137 9139 9141 9141 9141 9141
1779.4929 9139 9138 9137 9138 9141 9143 9145 9144 9141 9137 9134 9133 9136
1785.7604 9141 9146 9150 9153 9153 9151 9148 9144 9139 9134 9130 9126 9124
1792.0280 9124 9125 9126 9127 9126 9126 9126 9127 9129 9131 9131 9128 9124
1798.2954 9120 9115 9112 9111 9111 9111 9113 9115 9119 9124 9129 9132 9132
1804.5630 9131 9128 9126 9124 9124 9125 9127 9129 9129 9127 9123 9117 9111
1810.8304 9106 9104 9104 9107 9111 9115 9119 9121 9120 9116 9112 9109 9109
1817.0980 9111 9115 9117 9116 9114 9110 9108 9107 9108 9109 9109 9108 9104
1823.3655 9099 9093 9086 9082 9084 9090 9097 9100 9100 9094 9084 9072 9062
1829.6331 9061 9067 9075 9082 9085 9085 9085 9084 9085 9087 9089 9090 9089
1835.9005 9087 9085 9084 9085 9086 9086 9084 9080 9075 9070 9067 9065 9064
1842.1681 9063 9061 9061 9064 9071 9080 9087 9091 9092 9092 9093 9095 9099
1848.4355 9103 9106 9108 9107 9104 9100 9096 9093 9091 9089 9087 9085 9081
1854.7031 9079 9078 9078 9079 9082 9086 9090 9094 9095 9094 9090 9085 9081
1860.9706 9080 9081 9084 9086 9087 9085 9083 9078 9073 9066 9058 9052 9049
1867.2382 9050 9052 9053 9051 9044 9036 9034 9037 9046 9058 9069 9076 9078
1873.5056 9076 9073 9070 9068 9066 9063 9060 9055 9052 9050 9050 9052 9055
1879.7732 9057 9059 9059 9058 9055 9050 9044 9038 9032 9030 9032 9038 9047
1886.0406 9053 9056 9052 9044 9031 9018 9005 8998 8998 9004 9013 9020 9023
1892.3082 9021 9015 9008 9002 9000 9000 9001 9001 8998 8994 8987 8978 8967
1898.5757 8955 8943 8932 8922 8912 8902 8896 8893 8895 8903 8915 8929 8944
1904.8433 8958 8970 8982 8991 8997 9001 9002 9002 9001 9000 9000 9000 8996
1911.1107 8988 8975 8959 8944 8934 8931 8937 8949 8966 8983 9000 9016 9030
1917.3783 9043 9052 9056 9054 9048 9041 9036 9033 9033 9035 9036 9035 9030
1923.6458 9024 9023 9028 9038 9051 9061 9065 9060 9051 9040 9033 9030 9030
1929.9133 9031 9029 9023 9015 9005 8997 8991 8988 8987 8988 8988 8987 8986
1936.1808 8986 8989 8997 9011 9030 9051 9070 9085 9091 9085 9065 9032 8996
1942.4484 8966 8952 8954 8964 8978 8992 9007 9023 9037 9045 9044 9035 9022
1948.7158 9008 8995 8983 8971 8960 8956 8962 8977 8997 9015 9027 9037 9050
1954.9834 9072 9101 9127 9139 9132 9109 9082 9065 9062 9070 9081 9086 9082
1961.2509 9074 9070 9073 9082 9093 9101 9102 9096 9084 9069 9050 9029 9008
1967.5184 8989 8977 8973 8976 8987 9005 9026 9049 9070 9090 9108 9125 9139
1973.7859 9147 9144 9130 9112 9100 9100 9109 9114 9099 9057 8994 8928 8876
1980.0535 8849 8845 8861 8890 8928 8968 9002 9023 9028 9021 9014 9015 9025
1986.3209 9036 9036 9019 8991 8967 8962 8979 9011 9040 9054 9050 9033 9016
1992.5885 9009 9011 9017 9020 9015 9002 8984 8963 8945 8933 8932 8943 8961
1998.8560 8980 8994 9000 9003 9009 9023 9046 9069 9083 9079 9056 9021 8987
2005.1235 8966 8962 8970 8979 8981 8975 8968 8970 8984 9007 9029 9045 9055
2011.3910 9061 9071 9083 9093 9093 9081 9057 9024 8987 8950 8915 8887 8870
2017.6586 8868 8879 8899 8918 8933 8943 8951 8961 8976 8989 8993 8982 8960
2023.9260 8936 8929 8948 8996 9061 9124 9167 9182 9169 9137 9098 9059 9023
2030.1936 8991 8958 8920 8878 8840 8819 8823 8851 8889 8919 8928 8917 8902
2036.4611 8902 8926 8971 9025 9071 9096 9096 9074 9037 8996 8960 8936 8925
2042.7286 8925 8933 8946 8962 8980 8998 9012 9017 9015 9010 9006 9009 9020
2048.9961 9035 9047 9053 9052 9049 9047 9047 9045 9036 9015 8986 8956 8938
2055.2637 8937 8952 8972 8985 8985 8972 8957 8949 8956 8973 8995 9013 9020
2061.5313 9016 9002 8981 8958 8936 8921 8918 8927 8945 8963 8973 8973 8964
2067.7986 8953 8945 8943 8945 8948 8950 8950 8952 8956 8965 8977 8992 9006
2074.0662 9014 9015 9006 8989 8966 8940 8916 8898 8889 8890 8903 8925 8951
2080.3337 8974 8989 8993 8987 8975 8965 8959 8958 8958 8956 8950 8941 8933
2086.6013 8930 8934 8945 8959 8973 8982 8984 8977 8961 8942 8924 8913 8913
2092.8687 8922 8937 8951 8958 8960 8960 8961 8966 8971 8971 8963 8946 8926
2099.1362 8907 8897 8898 8909 8925 8941 8953 8958 8956 8949 8940 8931 8925
2105.4038 8924 8926 8929 8929 8924 8913 8901 8894 8896 8905 8918 8927 8930
2111.6714 8927 8922 8920 8924 8930 8934 8933 8927 8920 8918 8925 8941 8962
2117.9387 8979 8987 8983 8968 8949 8934 8931 8938 8952 8964 8968 8960 8944
2124.2063 8928 8917 8913 8912 8910 8903 8892 8882 8880 8890 8912 8940 8967
2130.4739 8983 8986 8977 8964 8956 8955 8963 8973 8979 8976 8969 8965 8969
2136.7415 8984 9003 9015 9012 8991 8957 8923 8900 8898 8916 8948 8983 9012
2143.0088 9029 9032 9023 9008 8992 8980 8975 8975 8976 8976 8978 8988 9009
2149.2764 9040 9072 9094 9099 9086 9064 9045 9035 9030 9023 9007 8980 8949
2155.5439 8926 8924 8946 8987 9029 9056 9057 9038 9019 9016 9033 9059 9073
2161.8115 9062 9029 8989 8961 8957 8977 9007 9030 9033 9013 8980 8949 8932
2168.0789 8933 8946 8958 8958 8943 8923 8912 8922 8956 9002 9045 9076 9094
2174.3464 9111 9135 9166 9190 9190 9153 9083 9001 8929 8885 8874 8893 8930
2180.6140 8972 9008 9032 9041 9037 9022 9003 8987 8980 8985 9004 9033 9065
2186.8816 9093 9110 9110 9096 9074 9052 9036 9028 9025 9022 9014 9000 8985
2193.1489 8972 8966 8970 8983 9001 9022 9041 9054 9056 9041 9010 8968 8928
2199.4165 8903 8899 8913 8933 8946 8944 8931 8917 8915 8931 8960 8991 9013
2205.6841 9020 9012 8991 8964 8934 8905 8882 8868 8867 8878 8895 8910 8916
2211.9517 8911 8899 8890 8891 8905 8929 8951 8961 8955 8936 8913 8896 8890
2218.2190 8896 8906 8917 8925 8930 8934 8937 8936 8930 8920 8911 8905 8903
2224.4866 8903 8901 8894 8881 8866 8854 8848 8850 8857 8866 8875 8881 8886
2230.7542 8891 8896 8902 8908 8913 8915 8913 8909 8904 8902 8903 8908 8912
2237.0217 8912 8906 8897 8888 8881 8878 8876 8875 8873 8872 8877 8887 8900
2243.2891 8912 8916 8912 8901 8888 8877 8869 8865 8863 8864 8870 8881 8896
2249.5566 8908 8912 8906 8893 8882 8878 8886 8901 8917 8927 8926 8919 8912
2255.8242 8911 8919 8932 8944 8947 8939 8923 8904 8890 8882 8882 8886 8890
2262.0918 8893 8895 8896 8899 8903 8908 8913 8918 8921 8924 8926 8928 8929
2268.3591 8927 8923 8916 8910 8907 8908 8914 8921 8927 8932 8935 8936 8937
2274.6267 8937 8934 8929 8923 8916 8910 8904 8899 8894 8890 8886 8885 8887
2280.8943 8893 8902 8910 8917 8918 8915 8907 8898 8890 8885 8883 8885 8888
2287.1619 8891 8893 8891 8888 8881 8874 8866 8861 8857 8856 8854 8853 8851
2293.4292 8849 8849 8853 8859 8867 8873 8876 8874 8867 8858 8850 8844 8842
2299.6968 8843 8845 8846 8846 8846 8845 8847 8850 8853 8854 8852 8846 8840
2305.9644 8835 8832 8833 8836 8840 8844 8847 8849 8851 8852 8853 8852 8849
2312.2319 8842 8831 8819 8808 8802 8800 8803 8809 8818 8827 8836 8841 8842
2318.4993 8838 8832 8825 8822 8822 8824 8824 8821 8814 8807 8801 8798 8797
2324.7668 8797 8798 8799 8802 8808 8813 8814 8808 8796 8780 8768 8764 8770
2331.0344 8782 8796 8807 8813 8815 8816 8819 8826 8835 8845 8852 8851 8841
2337.3020 8823 8802 8783 8772 8770 8777 8787 8797 8803 8806 8807 8812 8820
2343.5693 8832 8843 8852 8855 8853 8848 8842 8836 8830 8822 8814 8805 8796
2349.8369 8789 8785 8787 8794 8804 8811 8812 8805 8792 8776 8762 8756 8758
2356.1045 8768 8782 8796 8807 8812 8811 8805 8796 8788 8782 8779 8778 8776
2362.3721 8770 8760 8748 8740 8740 8751 8768 8782 8790 8789 8783 8778 8778
2368.6394 8783 8789 8792 8789 8782 8776 8776 8782 8794 8807 8818 8824 8827
2374.9070 8826 8825 8822 8820 8816 8813 8810 8808 8806 8805 8804 8804 8806
2381.1746 8811 8817 8823 8830 8834 8837 8838 8838 8836 8834 8832 8830 8827
2387.4421 8824 8821 8820 8821 8823 8825 8827 8826 8825 8824 8824 8825 8826
2393.7095 8827 8826 8824 8822 8819 8816 8814 8813 8811 8811 8811 8811 8811
2399.9771 8812 8812 8813 8815 8817 8818 8820 8820 8819 8817 8813 8809 8806
2406.2446 8805 8806 8811 8816 8821 8823 8821 8817 8811 8807 8805 8806 8809
2412.5122 8815 8820 8823 8824 8824 8821 8817 8814 8811 8809 8809 8809 8808
2418.7795 8807 8805 8803 8801 8800 8801 8804 8810 8815 8818 8817 8813 8806
2425.0471 8800 8799 8802 8811 8821 8830 8836 8839 8837 8833 8825 8817 8809
2431.3147 8804 8803 8806 8812 8819 8824 8828 8830 8832 8833 8835 8835 8834
2437.5823 8833 8833 8833 8835 8838 8841 8843 8845 8845 8843 8840 8836 8834
2443.8496 8834 8837 8841 8846 8851 8855 8856 8855 8850 8842 8834 8825 8819
2450.1172 8817 8819 8824 8832 8841 8848 8852 8854 8853 8851 8849 8849 8847
2456.3848 8845 8841 8836 8832 8830 8830 8832 8835 8838 8839 8839 8836 8831
2462.6523 8827 8824 8824 8827 8829 8831 8830 8828 8826 8825 8825 8826 8828
2468.9197 8829 8830 8831 8832 8835 8840 8846 8849 8850 8846 8839 8832 8827
2475.1873 8825 8826 8829 8832 8836 8840 8845 8848 8848 8844 8835 8824 8813
2481.4548 8806 8805 8808 8815 8823 8830 8833 8835 8835 8835 8835 8835 8836
2487.7224 8836 8835 8836 8836 8838 8841 8845 8850 8855 8857 8855 8850 8843
2493.9897 8835 8830 8829 8829 8830 8832 8832 8834 8835 8836 8837 8836 8833
2500.2573 8830 8827 8825 8824 8824 8824 8825 8825 8823 8819 8814 8809 8807
2506.5249 8810 8818 8828 8837 8843 8846 8847 8847 8847 8846 8845 8842 8839
2512.7925 8835 8832 8830 8830 8833 8837 8841 8845 8848 8850 8852 8854 8856
2519.0598 8855 8853 8849 8845 8842 8840 8841 8842 8843 8843 8842 8840 8837
2525.3274 8833 8830 8828 8827 8829 8833 8837 8840 8843 8846 8849 8851 8851
2531.5950 8850 8847 8844 8842 8842 8843 8844 8843 8838 8831 8824 8818 8817
2537.8625 8820 8826 8833 8838 8840 8839 8835 8831 8830 8831 8834 8837 8841
2544.1299 8844 8846 8847 8847 8845 8841 8836 8830 8825 8821 8819 8819 8819
2550.3975 8819 8818 8817 8816 8815 8815 8815 8817 8820 8823 8826 8829 8830
2556.6650 8830 8828 8826 8823 8821 8820 8820 8822 8823 8823 8824 8825 8827
2562.9326 8829 8830 8829 8825 8819 8812 8807 8805 8804 8803 8801 8797 8793
2569.2000 8789 8788 8790 8793 8797 8798 8798 8796 8794 8791 8789 8788 8788
2575.4675 8789 8791 8792 8793 8794 8795 8797 8800 8803 8807 8810 8812 8811
2581.7351 8809 8805 8801 8797 8794 8793 8793 8793 8793 8793 8791 8789 8785
2588.0027 8782 8779 8776 8774 8773 8772 8772 8773 8777 8782 8786 8787 8785
2594.2703 8782 8779 8777 8778 8778 8778 8776 8775 8775 8779 8784 8790 8793
2600.5376 8792 8787 8781 8775 8773 8773 8776 8780 8783 8785 8787 8788 8787
2606.8052 8785 8781 8776 8772 8769 8769 8771 8774 8779 8783 8788 8791 8792
2613.0728 8791 8788 8785 8781 8778 8776 8774 8772 8772 8773 8776 8780 8783
2619.3403 8784 8783 8782 8780 8780 8780 8780 8780 8778 8776 8773 8771 8770
2625.6077 8770 8770 8771 8771 8770 8767 8763 8759 8756 8755 8756 8758 8761
2631.8752 8763 8765 8766 8766 8766 8766 8767 8769 8771 8773 8776 8778 8780
2638.1428 8781 8782 8782 8781 8781 8780 8780 8780 8780 8780 8780 8782 8784
2644.4104 8787 8790 8792 8793 8792 8790 8788 8786 8784 8783 8782 8782 8783
2650.6777 8783 8783 8782 8780 8777 8775 8773 8772 8772 8771 8771 8770 8768
2656.9453 8765 8763 8761 8759 8758 8758 8759 8760 8761 8761 8762 8761 8761
2663.2129 8761 8761 8761 8762 8763 8763 8763 8763 8764 8765 8767 8769 8770
2669.4805 8771 8771 8770 8769 8769 8770 8771 8772 8774 8774 8774 8774 8774
2675.7478 8774 8775 8778 8780 8782 8784 8785 8786 8786 8786 8786 8785 8784
2682.0154 8783 8782 8781 8781 8783 8785 8787 8789 8790 8791 8791 8791 8789
2688.2830 8788 8786 8784 8783 8783 8784 8787 8790 8792 8794 8794 8793 8792
2694.5505 8792 8792 8792 8791 8789 8786 8783 8782 8782 8784 8786 8789 8790
2700.8179 8791 8790 8789 8788 8786 8786 8786 8788 8790 8792 8793 8794 8794
2707.0854 8796 8798 8801 8803 8805 8805 8804 8802 8799 8798 8797 8797 8798
2713.3530 8799 8800 8801 8801 8800 8800 8799 8798 8797 8796 8796 8796 8797
2719.6206 8798 8799 8800 8801 8801 8800 8799 8798 8796 8794 8792 8790 8788
2725.8879 8787 8787 8788 8792 8796 8799 8802 8803 8803 8802 8800 8800 8801
2732.1555 8802 8802 8802 8801 8800 8798 8797 8797 8798 8800 8802 8803 8804
2738.4231 8805 8807 8807 8808 8807 8806 8806 8807 8808 8809 8808 8807 8805
2744.6907 8804 8805 8805 8806 8806 8806 8806 8807 8808 8811 8812 8812 8811
2750.9580 8808 8805 8802 8799 8796 8795 8795 8797 8800 8803 8805 8807 8806
2757.2256 8805 8803 8801 8799 8798 8797 8796 8796 8797 8799 8800 8802 8804
2763.4932 8805 8805 8804 8802 8799 8797 8795 8795 8795 8797 8798 8800 8801
2769.7607 8801 8802 8802 8802 8801 8801 8800 8799 8799 8799 8800 8801 8802
2776.0281 8802 8802 8801 8799 8798 8797 8795 8793 8791 8790 8791 8793 8797
2782.2957 8802 8807 8809 8810 8810 8809 8809 8808 8808 8807 8805 8802 8800
2788.5632 8800 8801 8804 8806 8808 8808 8808 8809 8809 8810 8810 8809 8806
2794.8308 8803 8802 8801 8803 8805 8808 8810 8810 8810 8809 8809 8810 8811
2801.0981 8812 8813 8812 8810 8808 8807 8805 8805 8805 8806 8807 8807 8807
2807.3657 8807 8807 8806 8807 8808 8809 8809 8809 8808 8806 8804 8803 8802
2813.6333 8801 8802 8802 8803 8803 8802 8800 8799 8799 8799 8801 8802 8803
2819.9009 8802 8801 8799 8797 8794 8791 8788 8787 8787 8789 8792 8795 8797
2826.1682 8799 8800 8801 8802 8803 8805 8806 8807 8806 8804 8802 8801 8800
2832.4358 8800 8801 8802 8803 8805 8807 8810 8811 8812 8811 8808 8805 8803
2838.7034 8802 8802 8804 8808 8812 8815 8816 8816 8814 8811 8808 8804 8802
2844.9709 8800 8801 8803 8806 8810 8813 8814 8815 8814 8813 8811 8810 8809
2851.2383 8806 8804 8801 8799 8799 8801 8804 8808 8811 8812 8812 8810 8809
2857.5059 8808 8808 8808 8809 8808 8808 8807 8806 8805 8805 8805 8807 8810
2863.7734 8814 8815 8814 8811 8805 8800 8798 8798 8800 8803 8805 8806 8805
2870.0410 8804 8804 8804 8805 8805 8805 8804 8802 8801 8801 8801 8801 8801
2876.3083 8800 8798 8796 8795 8794 8793 8792 8791 8791 8792 8795 8798 8801
2882.5759 8801 8800 8797 8793 8790 8788 8787 8789 8791 8795 8798 8800 8800
2888.8435 8799 8797 8796 8796 8796 8795 8792 8790 8787 8786 8785 8785 8784
2895.1111 8783 8781 8780 8779 8779 8780 8780 8780 8780 8780 8780 8781 8782
2901.3784 8782 8782 8782 8782 8782 8781 8781 8782 8782 8782 8781 8782 8783
2907.6460 8786 8789 8791 8792 8790 8787 8784 8782 8782 8783 8784 8784 8785
2913.9136 8785 8785 8786 8787 8788 8789 8788 8786 8782 8779 8778 8778 8781
2920.1812 8785 8790 8794 8796 8796 8794 8791 8787 8782 8779 8776 8774 8773
2926.4485 8772 8772 8772 8773 8775 8777 8780 8782 8783 8784 8784 8785 8784
2932.7161 8784 8783 8783 8784 8785 8787 8788 8788 8787 8785 8785 8785 8785
2938.9836 8785 8785 8784 8784 8784 8785 8785 8785 8785 8783 8781 8780 8780
2945.2512 8782 8784 8785 8785 8785 8784 8784 8784 8784 8783 8782 8779 8776
2951.5186 8774 8773 8774 8774 8775 8774 8773 8773 8775 8777 8780 8782 8784
2957.7861 8785 8786 8788 8791 8794 8795 8793 8790 8786 8783 8782 8783 8786
2964.0537 8788 8789 8789 8787 8784 8784 8785 8789 8791 8792 8791 8788 8786
2970.3213 8787 8791 8797 8803 8805 8805 8802 8799 8797 8797 8798 8800 8802
2976.5886 8804 8805 8806 8805 8803 8799 8796 8794 8795 8799 8804 8810 8813
2982.8562 8814 8814 8814 8815 8817 8821 8824 8826 8827 8828 8829 8832 8835
2989.1238 8836 8836 8833 8830 8825 8821 8818 8814 8809 8804 8799 8795 8792
2995.3914 8790 8789 8788 8787 8787 8789 8793 8798 8802 8804 8803 8801 8799
3001.6587 8798 8800 8805 8811 8817 8820 8821 8818 8814 8810 8807 8808 8811
3007.9263 8815 8818 8820 8820 8819 8816 8814 8812 8811 8809 8807 8805 8804
3014.1938 8803 8804 8805 8805 8803 8798 8792 8785 8780 8776 8775 8776 8777
3020.4614 8779 8780 8781 8780 8779 8776 8773 8770 8767 8766 8764 8763 8761
3026.7288 8758 8754 8750 8744 8738 8731 8723 8716 8710 8705 8703 8702 8701
3032.9963 8700 8697 8695 8693 8691 8690 8690 8690 8689 8687 8685 8683 8681
3039.2639 8682 8683 8686 8689 8692 8695 8697 8700 8704 8709 8714 8718 8719
3045.5315 8719 8717 8713 8710 8705 8700 8694 8688 8682 8677 8674 8673 8675
3051.7988 8679 8683 8687 8690 8691 8690 8690 8689 8690 8692 8694 8696 8698
3058.0664 8698 8696 8694 8691 8689 8688 8688 8688 8689 8688 8686 8683 8677
3064.3340 8670 8663 8657 8652 8650 8650 8652 8656 8660 8665 8668 8671 8674
3070.6016 8677 8681 8687 8694 8703 8711 8718 8724 8729 8733 8737 8741 8744
3076.8689 8745 8744 8741 8737 8732 8729 8728 8729 8731 8732 8733 8731 8729
3083.1365 8725 8721 8716 8711 8707 8706 8707 8712 8717 8723 8726 8727 8726
3089.4041 8725 8725 8727 8729 8731 8733 8734 8735 8735 8734 8731 8727 8723
3095.6716 8719 8715 8714 8713 8712 8712 8711 8711 8712 8714 8716 8717 8716
3101.9390 8714 8711 8709 8709 8711 8715 8718 8722 8725 8727 8728 8727 8724
3108.2065 8721 8718 8716 8715 8716 8718 8720 8722 8722 8721 8719 8717 8716
3114.4741 8717 8718 8718 8717 8714 8710 8708 8707 8709 8713 8716 8717 8717
3120.7417 8716 8713 8712 8711 8711 8712 8712 8711 8708 8706 8705 8705 8707
3127.0090 8710 8712 8712 8708 8703 8696 8691 8688 8687 8687 8686 8686 8685
3133.2766 8685 8686 8689 8691 8692 8692 8690 8688 8685 8683 8681 8678 8676
3139.5442 8675 8676 8677 8677 8675 8672 8667 8661 8657 8656 8657 8659 8662
3145.8118 8664 8664 8665 8665 8666 8668 8669 8670 8670 8670 8668 8666 8662
3152.0791 8659 8655 8652 8650 8650 8651 8653 8654 8653 8652 8651 8651 8652
3158.3467 8654 8656 8657 8656 8654 8652 8651 8652 8654 8656 8657 8657 8656
3164.6143 8654 8651 8647 8643 8639 8637 8636 8637 8639 8641 8642 8642 8640
3170.8818 8637 8634 8632 8631 8631 8631 8631 8629 8625 8620 8614 8608 8604
3177.1492 8602 8603 8606 8610 8614 8616 8616 8613 8610 8608 8608 8607 8605
3183.4167 8601 8594 8587 8580 8574 8569 8566 8563 8562 8561 8562 8563 8565
3189.6843 8567 8568 8568 8565 8560 8555 8549 8543 8538 8533 8528 8524 8521
3195.9519 8519 8520 8520 8519 8516 8512 8509 8507 8507 8508 8506 8503 8496
3202.2192 8488 8481 8476 8473 8471 8470 8469 8467 8465 8463 8459 8454 8448
3208.4868 8443 8438 8434 8431 8429 8426 8423 8419 8414 8408 8404 8400 8399
3214.7544 8398 8398 8398 8396 8393 8388 8383 8378 8374 8371 8370 8371 8373
3221.0220 8375 8376 8376 8373 8371 8369 8368 8371 8374 8379 8381 8381 8377
3227.2893 8371 8363 8355 8349 8345 8344 8346 8349 8353 8356 8357 8357 8358
3233.5569 8359 8362 8366 8370 8373 8374 8373 8371 8371 8372 8375 8379 8383
3239.8245 8386 8387 8388 8387 8385 8383 8382 8382 8384 8388 8393 8398 8402
3246.0920 8406 8411 8417 8424 8433 8441 8449 8455 8460 8464 8469 8475 8480
3252.3594 8485 8488 8490 8492 8494 8497 8500 8504 8506 8508 8509 8510 8512
3258.6270 8514 8517 8519 8520 8519 8516 8513 8510 8508 8509 8510 8511 8511
3264.8945 8511 8511 8512 8515 8519 8522 8525 8524 8520 8513 8505 8498 8493
3271.1621 8492 8492 8495 8498 8501 8502 8500 8497 8494 8492 8490 8488 8485
3277.4294 8481 8476 8472 8470 8470 8471 8472 8473 8474 8475 8476 8475 8472
3283.6970 8466 8459 8453 8451 8454 8459 8464 8466 8463 8456 8446 8437 8430
3289.9646 8425 8422 8419 8416 8413 8409 8407 8405 8403 8402 8400 8398 8396
3296.2322 8395 8393 8391 8388 8383 8377 8370 8365 8361 8359 8358 8358 8356
3302.4995 8353 8348 8342 8335 8327 8319 8312 8305 8299 8293 8287 8282 8277
3308.7671 8271 8265 8258 8249 8241 8234 8230 8229 8230 8231 8230 8226 8219
3315.0347 8208 8196 8182 8168 8155 8142 8132 8125 8120 8117 8114 8110 8105
3321.3022 8097 8086 8074 8061 8047 8036 8027 8021 8016 8011 8003 7993 7981
3327.5696 7969 7958 7950 7945 7941 7938 7934 7930 7925 7920 7915 7912 7910
3333.8372 7911 7916 7923 7933 7943 7954 7965 7977 7990 8003 8016 8029 8041
3340.1047 8055 8070 8086 8104 8122 8138 8153 8167 8182 8197 8212 8225 8236
3346.3723 8244 8250 8254 8258 8262 8266 8270 8275 8280 8284 8286 8286 8282
3352.6396 8276 8270 8262 8253 8242 8230 8216 8201 8185 8168 8149 8127 8102
3358.9072 8076 8052 8029 8009 7989 7969 7949 7930 7914 7903 7899 7903 7918
3365.1748 7942 7976 8017 8063 8111 8161 8212 8264 8317 8369 8418 8464 8504
3371.4424 8539 8569 8592 8609 8620 8625 8625 8625 8624 8624 8624 8623 8618
3377.7097 8610 8600 8590 8582 8578 8577 8575 8572 8566 8557 8545 8533 8520
3383.9773 8508 8497 8487 8476 8463 8449 8434 8419 8406 8396 8389 8385 8381
3390.2449 8379 8375 8371 8365 8359 8354 8350 8351 8356 8364 8373 8384 8394
3396.5125 8403 8412 8422 8431 8442 8453 8466 8480 8495 8510 8525 8538 8550
3402.7798 8563 8574 8585 8595 8603 8611 8619 8627 8635 8643 8651 8657 8664
3409.0474 8670 8677 8684 8689 8693 8694 8693 8693 8696 8702 8712 8723 8734
3415.3149 8742 8746 8749 8752 8757 8763 8770 8776 8781 8786 8791 8797 8803
3421.5825 8807 8812 8816 8822 8829 8837 8843 8846 8846 8844 8841 8840 8840
3427.8499 8840 8840 8839 8838 8838 8839 8842 8843 8841 8836 8827 8816 8806
3434.1174 8798 8794 8791 8788 8785 8781 8777 8771 8764 8754 8742 8728 8714
3440.3850 8700 8686 8672 8655 8635 8613 8590 8568 8546 8525 8505 8486 8470
3446.6526 8456 8446 8438 8432 8424 8415 8402 8385 8367 8347 8329 8315 8306
3452.9199 8303 8307 8318 8337 8364 8398 8440 8488 8538 8588 8637 8682 8725
3459.1875 8764 8800 8833 8862 8888 8910 8929 8946 8960 8973 8983 8990 8995
3465.4551 8998 9001 9005 9010 9017 9025 9031 9035 9036 9034 9031 9028 9025
3471.7227 9022 9019 9015 9012 9011 9012 9015 9019 9022 9024 9023 9022 9020
3477.9900 9018 9017 9016 9014 9011 9007 9003 8999 8998 8999 9004 9008 9010
3484.2576 9009 9004 8998 8992 8988 8987 8988 8991 8994 8997 9000 9004 9008
3490.5251 9009 9009 9006 9002 8996 8990 8984 8977 8972 8970 8971 8976 8983
3496.7927 8990 8994 8995 8992 8987 8982 8978 8975 8972 8971 8971 8974 8978
3503.0601 8981 8981 8979 8976 8974 8975 8978 8980 8980 8976 8969 8961 8957
3509.3276 8956 8959 8963 8967 8970 8975 8980 8987 8993 8995 8995 8992 8988
3515.5952 8984 8981 8978 8976 8973 8971 8969 8968 8967 8964 8961 8958 8959
3521.8628 8963 8971 8978 8979 8974 8963 8951 8940 8934 8933 8936 8941 8947
3528.1301 8952 8955 8957 8958 8958 8958 8957 8955 8952 8946 8940 8933 8928
3534.3977 8926 8928 8936 8949 8962 8973 8977 8973 8964 8952 8942 8935 8930
3540.6653 8927 8924 8923 8924 8926 8931 8935 8938 8939 8940 8941 8943 8947
3546.9329 8948 8947 8943 8938 8933 8932 8934 8938 8941 8944 8945 8945 8946
3553.2002 8946 8947 8946 8943 8940 8937 8936 8938 8941 8945 8947 8947 8944
3559.4678 8941 8938 8935 8932 8931 8930 8930 8929 8927 8924 8919 8913 8907
3565.7354 8902 8901 8905 8913 8924 8934 8941 8944 8944 8942 8938 8935 8932
3572.0029 8930 8930 8931 8932 8934 8933 8930 8925 8921 8918 8918 8918 8917
3578.2705 8915 8911 8909 8910 8914 8919 8925 8929 8930 8928 8923 8919 8915
3584.5378 8915 8916 8919 8922 8922 8918 8910 8903 8897 8895 8894 8894 8895
3590.8054 8898 8903 8910 8916 8919 8916 8910 8902 8897 8897 8903 8911 8920
3597.0730 8927 8930 8926 8918 8907 8898 8895 8897 8903 8910 8916 8921 8925
3603.3406 8927 8926 8921 8913 8904 8899 8899 8905 8914 8921 8923 8921 8918
3609.6079 8916 8917 8919 8921 8922 8922 8921 8919 8917 8917 8919 8920 8921
3615.8755 8919 8912 8903 8891 8880 8873 8875 8883 8893 8902 8906 8907 8907
3622.1431 8905 8903 8901 8897 8892 8888 8885 8885 8887 8887 8885 8878 8868
3628.4106 8863 8873 8893 8910 8917 8917 8910 8899 8887 8876 8870 8872 8879
3634.6780 8889 8896 8901 8901 8899 8896 8894 8894 8896 8898 8900 8900 8899
3640.9456 8898 8899 8900 8902 8903 8901 8896 8888 8878 8866 8855 8848 8851
3647.2131 8864 8880 8891 8890 8878 8863 8856 8864 8881 8899 8913 8921 8923
3653.4807 8919 8909 8896 8882 8875 8877 8888 8899 8905 8906 8902 8897 8893
3659.7480 8891 8893 8898 8906 8914 8922 8927 8928 8925 8920 8913 8906 8901
3666.0156 8897 8893 8888 8879 8867 8852 8838 8832 8841 8860 8880 8893 8898
3672.2832 8897 8893 8886 8878 8871 8866 8867 8873 8877 8878 8878 8876 8875
3678.5508 8874 8876 8879 8883 8885 8885 8883 8880 8878 8878 8882 8888 8893
3684.8181 8894 8891 8884 8876 8868 8863 8863 8868 8874 8878 8883 8889 8897
3691.0857 8905 8909 8910 8908 8905 8902 8899 8897 8896 8896 8898 8900 8901
3697.3533 8900 8896 8891 8887 8883 8881 8881 8881 8884 8888 8892 8895 8895
3703.6208 8894 8892 8891 8891 8890 8889 8885 8880 8876 8873 8871 8868 8862
3709.8882 8850 8837 8829 8834 8852 8875 8892 8898 8897 8892 8886 8880 8875
3716.1558 8870 8866 8863 8865 8871 8879 8885 8885 8876 8864 8852 8848 8856
3722.4233 8871 8885 8891 8888 8882 8877 8876 8880 8885 8889 8889 8887 8885
3728.6909 8883 8882 8880 8876 8868 8856 8842 8830 8824 8824 8829 8840 8852
3734.9583 8862 8866 8867 8868 8873 8880 8885 8886 8882 8875 8867 8858 8850
3741.2258 8841 8831 8820 8811 8808 8819 8850 8883 8895 8890 8878 8864 8851
3747.4934 8841 8837 8840 8849 8855 8852 8839 8825 8819 8831 8854 8874 8885
3753.7610 8887 8884 8882 8881 8882 8884 8884 8881 8875 8867 8861 8859 8862
3760.0283 8866 8869 8870 8869 8867 8865 8862 8860 8859 8859 8861 8866 8870
3766.2959 8870 8865 8856 8846 8837 8835 8842 8858 8873 8881 8882 8878 8874
3772.5635 8871 8870 8872 8875 8876 8875 8872 8866 8859 8852 8847 8845 8850
3778.8311 8858 8868 8876 8880 8882 8882 8882 8881 8878 8875 8870 8866 8861
3785.0984 8858 8856 8857 8859 8865 8871 8877 8880 8879 8875 8869 8864 8861
3791.3660 8860 8862 8865 8869 8871 8871 8867 8861 8854 8849 8850 8857 8864
3797.6335 8868 8866 8859 8848 8833 8817 8807 8811 8831 8855 8870 8874 8868
3803.9011 8856 8841 8826 8813 8809 8821 8846 8872 8890 8897 8896 8891 8883
3810.1685 8875 8868 8863 8860 8858 8856 8853 8847 8840 8831 8826 8830 8841
3816.4360 8854 8860 8859 8853 8844 8834 8827 8827 8841 8868 8892 8902 8900
3822.7036 8893 8884 8876 8868 8861 8854 8848 8847 8850 8858 8865 8869 8869
3828.9712 8863 8855 8847 8842 8843 8849 8856 8858 8856 8851 8845 8842 8841
3835.2385 8843 8846 8850 8855 8862 8867 8867 8860 8850 8842 8838 8838 8838
3841.5061 8836 8831 8826 8826 8832 8845 8859 8870 8875 8876 8875 8873 8870
3847.7737 8867 8862 8854 8844 8834 8826 8822 8821 8823 8828 8837 8851 8865
3854.0413 8871 8869 8861 8853 8847 8845 8849 8857 8863 8866 8863 8857 8851
3860.3086 8847 8848 8854 8860 8863 8861 8857 8854 8857 8866 8874 8874 8867
3866.5762 8855 8844 8834 8827 8826 8829 8837 8845 8851 8854 8854 8853 8850
3872.8438 8848 8849 8854 8862 8868 8872 8872 8870 8864 8855 8845 8833 8824
3879.1113 8819 8825 8838 8852 8859 8859 8854 8847 8840 8835 8831 8832 8836
3885.3787 8846 8857 8865 8869 8870 8869 8865 8860 8853 8844 8837 8833 8833
3891.6462 8836 8838 8840 8842 8844 8847 8851 8854 8854 8853 8851 8850 8851
3897.9138 8855 8860 8865 8864 8857 8847 8835 8826 8821 8820 8823 8826 8830
3904.1814 8834 8840 8847 8854 8860 8865 8868 8870 8870 8868 8866 8865 8867
3910.4487 8873 8880 8885 8886 8883 8878 8873 8869 8867 8867 8865 8863 8861
3916.7163 8857 8854 8852 8850 8849 8852 8858 8865 8872 8874 8871 8864 8856
3922.9839 8848 8844 8845 8849 8854 8859 8861 8862 8862 8863 8865 8868 8871
3929.2515 8872 8869 8864 8860 8859 8862 8869 8876 8880 8879 8874 8869 8865
3935.5188 8863 8862 8862 8862 8862 8862 8864 8866 8869 8872 8874 8874 8874
3941.7864 8872 8871 8871 8871 8871 8870 8869 8868 8866 8864 8862 8860 8859
3948.0540 8857 8857 8858 8860 8863 8867 8872 8875 8879 8882 8884 8884 8883
3954.3215 8882 8879 8877 8874 8870 8867 8864 8863 8864 8866 8870 8873 8874
3960.5889 8872 8870 8867 8865 8865 8866 8868 8870 8870 8870 8868 8865 8862
3966.8564 8860 8859 8859 8862 8865 8869 8872 8873 8872 8871 8870 8872 8874
3973.1240 8878 8881 8883 8882 8879 8873 8866 8859 8852 8848 8847 8849 8852
3979.3916 8856 8858 8860 8862 8866 8873 8880 8887 8890 8889 8884 8877 8870
3985.6589 8863 8858 8855 8854 8856 8860 8864 8867 8867 8866 8863 8861 8860
3991.9265 8860 8862 8862 8862 8861 8860 8859 8858 8857 8856 8857 8858 8861
3998.1941 8865 8868 8870 8870 8868
##END= 
