##TITLE= BKG
##JCAMP-DX= 4.24
##DATA TYPE= INFRARED SPECTRUM
##ORIGIN= JASCO
##OWNER= 
##DATE= 22/03/30
##TIME= 18:36:37
##SPECTROMETER/DATA SYSTEM= 
##RESOLUTION= 
##DELTAX=   0.48211674
##XUNITS= 1/CM
##YUNITS= ARBITRARY UNITS
##XFACTOR= 1.00000
##YFACTOR= 1E-005
##FIRSTX=   599.7532
##LASTX=  4000.1226
##NPOINTS=     7054
##FIRSTY=      1.16147
##MAXY=     10.23002
##MINY=      0.27773
##XYDATA= (X++(Y..Y))
599.7532 116147 116644 117875 119615 121461 123031 124133 124820 125307 125817
604.5744 126477 127284 128163 129030 129830 130543 131163 131693 132140 132516
609.3956 132841 133139 133438 133775 134181 134674 135240 135831 136362 136714
614.2167 136739 136284 135261 133741 132022 130602 130029 130665 132494 135091
619.0379 137797 140004 141413 142108 142427 142723 143158 143649 143970 143930
623.8591 143516 142924 142470 142444 142976 143988 145237 146436 147374 147984
628.6802 148327 148509 148594 148575 148407 148073 147614 147112 146624 146150
633.5014 145642 145076 144504 144048 143841 143936 144259 144639 144888 144888
638.3226 144637 144232 143811 143475 143247 143065 142823 142433 141881 141242
643.1437 140653 140246 140084 140116 140183 140064 139564 138598 137258 135800
647.9649 134567 133865 133844 134454 135475 136618 137629 138364 138804 139033
652.7861 139177 139348 139597 139914 140255 140587 140899 141183 141410 141544
657.6072 141590 141644 141868 142412 143314 144478 145743 146962 148050 148992
662.4284 149863 150899 152454 154696 157043 157698 153830 142727 123540 98656
667.2496 73624 55314 49078 56405 74381 97198 118796 135148 145150 149982
672.0707 151717 152104 152072 151887 151557 151111 150645 150254 149964 149737
676.8919 149503 149188 148739 148153 147511 146979 146752 146967 147625 148594
681.7131 149668 150667 151505 152213 152892 153644 154490 155337 155999 156294
686.5342 156160 155742 155370 155422 156137 157477 159132 160684 161836 162568
691.3554 163127 163861 164992 166488 168087 169453 170357 170774 170860 170839
696.1766 170893 171101 171457 171914 172437 173009 173624 174263 174881 175426
700.9977 175867 176209 176498 176790 177128 177531 178015 178627 179456 180617
705.8189 182199 184220 186601 189178 191738 194066 196005 197497 198598 199449
710.6401 200197 200917 201584 202114 202462 202666 202831 203035 203266 203446
715.4612 203523 203535 203537 203443 202906 201425 198668 194833 190764 187667
720.2824 186540 187663 190463 193832 196702 198501 199273 199441 199465 199599
725.1036 199869 200194 200499 200762 200980 201139 201215 201209 201152 201089
729.9247 201030 200931 200707 200273 199579 198632 197474 196162 194736 193206
734.7459 191548 189721 187689 185437 182960 180247 177261 173949 170273 166245
739.5671 161944 157487 152983 148484 143977 139421 134792 130122 125498 121023
744.3882 116778 112795 109067 105576 102312 99287 96526 94066 91949 90224
749.2094 88932 88100 87747 87903 88628 89984 91968 94438 97109 99658 101886
754.5127 103814 105623 107459 109256 110744 111671 112103 112527 113634 115863
759.3339 119007 122188 124237 124282 122190 118601 114581 111136 108864 107884
764.1550 108003 108952 110533 112663 115326 118523 122244 126472 131197 136413
768.9762 142117 148279 154818 161582 168372 174990 181297 187252 192895 198293
773.7974 203482 208436 213082 217337 221141 224470 227331 229754 231793 233517
778.6185 235000 236304 237458 238463 239302 239960 240432 240726 240858 240853
783.4397 240757 240633 240549 240554 240648 240775 240849 240796 240598 240311
788.2609 240032 239857 239822 239892 239985 240028 240001 239948 239945 240041
793.0820 240233 240463 240660 240785 240843 240871 240896 240911 240884 240783
797.9032 240613 240429 240314 240330 240481 240689 240823 240755 240433 239927
802.7244 239427 239176 239379 240118 241326 242829 244431 245990 247456 248852
807.5455 250219 251565 252859 254047 255097 256015 256837 257592 258274 258832
812.3667 259207 259376 259388 259349 259386 259585 259956 260432 260905 261279
817.1879 261506 261611 261671 261783 262022 262399 262856 263292 263618 263806
822.0090 263908 264030 264268 264654 265141 265634 266048 266355 266585 266788
826.8302 267001 267224 267440 267647 267863 268113 268399 268677 268886 268994
831.6514 269038 269112 269309 269651 270057 270379 270489 270355 270067 269781
836.4725 269632 269665 269826 270013 270146 270228 270336 270591 271096 271900
841.2937 272992 274312 275778 277303 278814 280251 281576 282773 283851 284835
846.1149 285750 286618 287450 288252 289021 289750 290416 290990 291445 291775
850.9360 292012 292221 292482 292862 293394 294072 294859 295701 296545 297345
855.7572 298081 298752 299381 299993 300606 301214 301796 302327 302806 303262
860.5784 303760 304372 305150 306090 307130 308170 309119 309934 310635 311287
865.3995 311960 312695 313500 314366 315286 316266 317306 318389 319477 320527
870.2207 321521 322476 323438 324461 325580 326792 328052 329281 330401 331365
875.0419 332184 332935 333728 334663 335789 337091 338509 339971 341417 342805
879.8630 344113 345329 346453 347496 348473 349397 350281 351149 352046 353036
884.6842 354181 355503 356964 358475 359931 361253 362421 363467 364461 365475
889.5054 366564 367750 369021 370340 371650 372896 374040 375071 376000 376843
894.3265 377603 378264 378806 379236 379607 380021 380596 381413 382480 383720
899.1477 385004 386206 387251 388141 388938 389721 390545 391410 392263 393039
903.9689 393693 394238 394733 395251 395826 396433 397002 397470 397825 398124
908.7900 398458 398896 399445 400054 400649 401186 401672 402153 402669 403236
913.6112 403837 404457 405119 405893 406874 408140 409705 411512 413465 415479
918.4324 417515 419588 421724 423913 426086 428126 429920 431416 432644 433698
923.2535 434683 435656 436606 437472 438191 438748 439186 439586 440017 440503
928.0747 441021 441526 441999 442469 442998 443640 444411 445279 446185 447081
932.8959 447941 448758 449523 450212 450805 451313 451790 452315 452954 453713
937.7170 454535 455328 456018 456585 457066 457514 457963 458413 458841 459232
942.5382 459593 459951 460322 460698 461048 461343 461573 461748 461884 461977
947.3594 462006 461949 461812 461635 461480 461395 461389 461430 461473 461482
952.1805 461455 461409 461365 461327 461281 461207 461091 460939 460772 460616
957.0017 460485 460369 460235 460034 459731 459326 458867 458430 458096 457906
961.8229 457848 457855 457835 457698 457383 456869 456180 455386 454589 453901
966.6440 453412 453161 453134 453278 453544 453910 454392 455021 455816 456767
971.4652 457838 458985 460178 461410 462702 464095 465630 467324 469146 471005
976.2864 472772 474316 475565 476536 477322 478049 478813 479650 480530 481399
981.1075 482217 482983 483737 484536 485435 486462 487617 488867 490156 491416
985.9287 492582 493613 494503 495298 496083 496956 497987 499175 500437 501633
990.7499 502635 503391 503953 504455 505032 505757 506601 507468 508252 508898
995.5710 509413 509846 510242 510621 510979 511304 511596 511868 512142 512443
1000.3922 512795 513225 513748 514351 514985 515573 516034 516316 516418
1004.7313 516376 516241 516050 515809 515496 515083 514549 513896 513144
1009.0703 512332 511512 510734 510049 509494 509096 508868 508823 508974
1013.4094 509341 509947 510799 511876 513117 514418 515657 516722 517543
1017.7484 518109 518467 518693 518857 519001 519124 519202 519209 519136
1022.0875 518996 518817 518617 518387 518092 517682 517126 516425 515623
1026.4265 514789 513984 513242 512556 511890 511208 510486 509728 508951
1030.7656 508179 507429 506711 506033 505410 504856 504372 503934 503483
1035.1046 502945 502257 501404 500436 499451 498566 497870 497402 497151
1039.4437 497073 497115 497236 497404 497593 497771 497901 497947 497897
1043.7827 497767 497609 497484 497434 497455 497495 497481 497351 497082
1048.1218 496699 496254 495800 495369 494959 494541 494076 493542 492944
1052.4608 492316 491697 491101 490501 489846 489092 488243 487348 486477
1056.7999 485673 484938 484247 483579 482940 482345 481787 481224 480588
1061.1389 479831 478959 478023 477091 476207 475384 474616 473901 473250
1065.4780 472670 472147 471642 471107 470514 469861 469172 468474 467780
1069.8170 467084 466378 465655 464922 464185 463436 462646 461780 460826
1074.1561 459830 458900 458171 457745 457630 457725 457868 457903 457752
1078.4951 457436 457055 456733 456569 456614 456861 457263 457747 458234
1082.8342 458656 458972 459179 459311 459432 459619 459938 460423 461050
1087.1732 461755 462450 463066 463580 464011 464393 464749 465083 465391
1091.5123 465685 465994 466348 466757 467204 467672 468186 468823 469685
1095.8513 470838 472262 473850 475454 476961 478346 479670 481034 482507
1100.1904 484090 485708 487253 488639 489834 490875 491835 492788 493767
1104.5294 494764 495747 496691 497602 498515 499465 500463 501485 502484
1108.8685 503422 504294 505135 505993 506905 507869 508837 509738 510502
1113.2075 511104 511574 511993 512461 513055 513800 514665 515587 516505
1117.5466 517378 518191 518943 519646 520324 521021 521794 522692 523729
1121.8856 524862 526007 527076 528015 528831 529587 530371 531254 532248
1126.2247 533304 534324 535210 535920 536491 537022 537618 538317 539065
1130.5637 539734 540197 540385 540320 540080 539759 539439 539203 539166
1134.9028 539481 540295 541678 543563 545748 547959 549936 551508 552611
1139.2418 553271 553569 553611 553518 553418 553426 553634 554088 554791
1143.5809 555711 556795 557986 559237 560520 561833 563184 564588 566046
1147.9199 567549 569091 570680 572339 574091 575941 577864 579817 581770
1152.2590 583718 585684 587695 589761 591863 593959 596000 597947 599774
1156.5980 601476 603060 604549 605985 607415 608883 610405 611961 613507
1160.9371 614986 616351 617578 618669 619652 620578 621523 622586 623857
1165.2761 625389 627166 629105 631083 632989 634757 636379 637886 639321
1169.6152 640719 642096 643435 644676 645708 646412 646733 646756 646725
1173.9542 646957 647691 648935 650420 651702 652345 652112 651038 649390
1178.2933 647555 645935 644895 644740 645676 647749 650792 654437 658218
1182.6323 661718 664675 666994 668689 669823 670512 670968 671528 672584
1186.9714 674436 677145 680490 684078 687529 690634 693397 695957 698462
1191.3104 700977 703481 705912 708237 710487 712751 715131 717697 720450
1195.6495 723322 726215 729067 731890 734768 737797 741014 744362 747705
1199.9885 750889 753807 756423 758755 760841 762703 764345 765763 766971
1204.3276 768017 768986 769977 771061 772255 773519 774794 776040 777254
1208.6666 778428 779498 780335 780815 780941 780916 781098 781828 783245
1213.0057 785191 787299 789177 790599 791563 792224 792771 793340 794019
1217.3447 794901 796109 797759 799894 802441 805249 808171 811131 814118
1221.6838 817104 819980 822574 824765 826629 828488 830803 833955 838038
1226.0228 842793 847724 852329 856301 859603 862393 864882 867211 869406
1230.3619 871417 873188 874712 876033 877224 878349 879443 880509 881536
1234.7009 882512 883426 884265 885007 885623 886088 886396 886570 886675
1239.0400 886823 887142 887726 888543 889392 889938 889870 889085 887805
1243.3790 886523 885774 885869 886720 887890 888804 889012 888347 886913
1247.7181 884937 882602 879946 876879 873267 869016 864092 858501 852241
1252.0571 845309 837724 829557 820908 811865 802482 792834 783092 773555
1256.3962 764522 756098 748045 739880 731212 722152 713515 706636 702847
1260.7352 702896 706613 713044 720953 729415 738092 746969 755675 762870
1265.0743 766315 763935 755455 743591 733720 731734 740972 759988 782640
1269.4133 800711 807682 801563 785274 764595 745125 730044 719677 712613
1273.7524 707287 702987 699930 698728 699821 703235 708659 715645 723770
1278.0914 732707 742263 752383 763117 774520 786533 798910 811244 823106
1282.4305 834211 844516 854147 863168 871338 878048 882581 884609 884615
1286.7695 883921 884185 886615 891384 897608 903911 909178 913030 915774
1291.1086 917981 920057 922083 923923 925411 926419 926837 926567 925644
1295.4476 924392 923429 923429 924760 927240 930209 932864 934644 935422
1299.7867 935425 935011 934465 933931 933432 932927 932367 931746 931150
1304.1257 930749 930695 930963 931270 931206 930551 929606 929247 930581
1308.4648 934299 940069 946336 950739 951040 946209 937129 926521 917992
1312.8038 914568 917382 925213 935113 943758 948778 949342 945895 939476
1317.1429 931270 922690 915679 912659 915798 925891 941615 959787 976617
1321.4819 989274 996873 1000400 1001777 1002729 1004100 1005841 1007474
1325.3389 1008606 1009179 1009400 1009492 1009489 1009235 1008578 1007607
1329.1958 1006710 1006365 1006790 1007744 1008727 1009443 1010112 1011222
1333.0527 1012758 1013502 1011147 1003415 989523 970840 950017 929042 907702
1337.3918 883878 855872 825308 798382 784091 790014 818033 862657 913090
1341.7308 957891 989552 1006584 1012408 1012342 1010762 1009862 1009996
1345.5878 1010628 1010954 1010069 1007124 1001805 994882 988206 983942 983453
1349.9269 986652 992183 998148 1002690 1004196 1001417 993939 982888 971106
1354.2659 962209 958800 961050 966733 972721 976748 978112 976967 973067
1358.6050 965119 951170 929489 899276 861120 817631 774230 739262 722247
1362.9440 730244 763987 816330 874397 924482 956959 968712 962474 944405
1367.2831 921756 901434 889108 888207 898805 917131 936304 948192 945678
1371.6221 924673 885622 834329 781559 740705 723512 735302 772185 822237
1375.9612 870508 905339 922641 926032 923328 921879 925451 933851 944587
1380.3002 954907 962972 968043 970285 970667 970706 971504 972063 967991
1384.6393 952252 918731 867249 806849 754319 727491 736485 778069 836946
1388.9783 893549 933692 954134 960857 961791 959337 947938 918299 865325
1393.3174 794398 721728 668113 649282 667904 711558 757989 785361 782590
1397.6564 754524 719189 698518 707546 747897 808622 872894 925774 958537
1401.9955 968396 956062 924526 880125 833851 799824 790146 808856 849268
1406.3345 897052 937335 961365 968814 965166 956921 948136 939986 932510
1410.6736 926411 923486 925641 933431 945086 956513 962379 958013 941321
1415.0126 913531 877868 836695 789242 732346 664767 592608 531477 502270
1419.3517 521459 590931 693718 799115 875341 903408 884983 840323 797707
1423.6907 780170 796345 839378 893169 941298 973286 985565 978589 953961
1428.0298 914486 866615 821798 793631 791305 813766 849564 883447 905319
1432.3688 914725 917205 915441 902915 866427 796960 701150 604064 539572
1436.7079 533466 589864 689361 799617 891215 949336 975746 982342 982008
1441.0469 982442 985111 987920 988663 987047 984549 982590 980177 972621
1445.3860 952831 915474 862141 803991 758916 743493 763866 811299 865763
1449.7250 905885 919445 908263 885005 864414 854431 852006 845169 819484
1454.0641 765250 682145 579708 474042 382615 319560 293159 305708 354613
1458.4031 433361 532050 638315 739486 825460 890412 931863 947919 935664
1462.7422 893355 825737 748129 684403 657888 679904 743418 826556 904025
1467.0812 959135 988913 999979 999223 986323 953108 889784 793738 675455
1471.4203 557914 469207 431356 450384 512759 590887 655833 691076 699762
1475.7593 701192 718547 765143 837165 916417 980444 1013567 1013020 988196
1480.0984 954937 928535 918556 926943 949223 977546 1003717 1020775 1023002
1484.4374 1005754 966732 908604 840523 775705 724920 689888 662175 629901
1488.7765 588367 546702 524786 541834 604471 702356 813406 913631 984549
1493.1155 1015129 1000848 944030 856103 757921 674216 623325 608812 619711
1497.4546 639908 659764 681080 712084 757383 811741 862805 899892 920833
1501.7936 930771 934007 926072 893256 820923 705009 558532 408408 284503
1506.1327 207711 183808 205435 259220 332555 416095 502129 582158 647096
1510.4717 690687 713444 723472 732594 749599 774585 797800 803806 779029
1514.8108 719299 634063 545066 479150 457258 484119 543961 605553 635375
1519.1498 612916 540479 442430 354382 307768 317115 375376 458670 537638
1523.4889 590028 608834 602508 587794 579729 584781 600810 622647 648278
1527.8279 680620 723777 777101 831944 873627 887256 863847 803930 717951
1532.1670 624197 544878 500627 504272 555922 641788 737654 815634 851570
1536.5060 830965 752623 629662 487058 354957 258929 211177 207636 233030
1540.8451 270728 310821 351367 393340 434874 470530 496442 516498 543246
1545.1841 591228 666652 760554 850498 910223 921846 884299 814356 740403
1549.5232 691742 687197 726956 791189 847339 864430 828401 750257 661344
1553.8622 597003 577183 595285 621999 621824 572261 474627 351461 234146
1558.2013 149516 112803 128296 193513 301705 440895 592064 730561 832353
1562.5403 882662 882173 847124 803009 774814 777815 812122 862496 903650
1566.8794 909919 866563 778224 669866 578104 535860 557744 634163 737494
1571.2184 836408 909363 949405 958918 940362 891508 809440 699885 583400
1575.5575 491678 454506 485124 573400 691121 805810 894503 950106 978596
1579.8965 991109 996795 1000063 1001879 1002366 1002265 1002683 1004186
1583.7534 1006414 1008520 1009891 1010478 1010559 1010277 1009359 1007207
1587.6105 1003223 997181 989468 981159 973836 969106 967870 969608 972150
1591.9495 972290 967200 956038 940796 925736 915565 913309 919128 930668
1596.2886 944534 957807 968680 976187 979659 978603 973020 963631 951591
1600.6276 937919 923309 908673 895912 887864 886930 893103 903013 911156
1604.9667 912836 906855 895976 884758 876446 871317 867753 865006 865144
1609.3057 872245 889160 914389 941840 964110 976966 981293 980392 974257
1613.6448 955573 911853 834026 726502 611303 521688 487433 519998 606665
1617.9838 717333 819577 892486 931257 941500 929324 895566 838382 761332
1622.3229 679485 617272 597932 630681 703856 788812 852851 874234 851457
1626.6619 802495 755125 733676 748705 794058 851977 903014 935333 948441
1631.0010 949565 945257 933943 904815 844480 747490 623810 497875 399182
1635.3400 349802 355973 407993 487200 574926 658283 730847 790023 834367
1639.6791 863004 876862 879853 878217 877736 880121 880766 869633 835490
1644.0181 771811 681325 576598 476138 398084 354901 351371 385611 450802
1648.3572 535612 623529 693432 723593 698765 617138 493166 354246 232538
1652.6962 155548 139039 184184 278964 402670 532033 647278 736422 796548
1657.0353 832029 850888 861008 867347 870452 866324 848033 809492 750538
1661.3743 680604 617740 581917 585598 627223 692027 759658 813297 844241
1665.7134 850063 829947 782752 710080 621078 533205 466264 433144 434185
1670.0524 459568 497453 540821 587350 633253 667891 675797 646377 584387
1674.3915 512431 462009 457852 505123 587052 673706 736126 758090 740547
1678.7305 698332 652039 618811 605192 604373 599126 569949 505477 410313
1683.0696 305837 222707 188185 214425 293464 401108 507312 587743 631334
1687.4086 641353 630839 615552 607832 613511 632179 659625 690595 720269
1691.7477 743912 755492 747095 710761 642872 549037 446075 358470 309490
1696.0867 310554 354286 415560 461177 464371 417511 336701 255510 210224
1700.4258 223451 294054 398422 502162 575749 605817 596974 565048 527493
1704.7648 497064 481022 483457 506606 549286 604381 659058 699414 717360
1709.1039 715101 703765 696652 701172 714348 724414 717409 685031 629547
1713.4429 563167 502081 458126 432647 416321 395624 362469 321100 287532
1717.7820 281389 314910 385805 477996 569214 640482 682313 695523 688056
1722.1210 670699 653646 644247 645605 656205 671155 684924 694127 698370
1726.4601 698473 693622 680280 654486 616274 572605 535573 515856 515162
1730.7991 522940 520520 491185 430600 351286 278087 236923 243028 294937
1735.1382 376686 465741 541476 590142 605789 589482 548954 498372 455897
1739.4772 437641 450102 485926 526945 553794 556527 539476 517373 505640
1743.8163 511337 530102 549935 558457 549075 523277 488943 456249 433106
1748.1553 421891 418887 417008 410744 400546 393690 400596 428633 477243
1752.4944 537347 595093 637399 656239 650246 624062 586678 549422 523500
1756.8334 517033 532222 563900 600493 627551 632886 611616 569010 519450
1761.1725 481178 468679 486360 527071 576420 620170 650019 664434 665133
1765.5115 653111 628021 591293 549599 514439 496653 499134 513134 521633
1769.8506 508467 467917 408929 351391 316561 316965 351070 405165 460883
1774.1896 504008 529929 543358 553290 566656 584372 601547 610961 607327
1778.5287 590062 563670 536183 516513 511455 522966 546766 573351 591730
1782.8677 594530 581771 560941 543075 537067 545542 564478 586242 603690
1787.2068 612812 612852 604653 588811 564893 532066 490673 443953 398861
1791.5458 365076 351833 363577 396738 440097 479467 504519 513648 513568
1795.8849 513754 519503 528466 532970 526183 507412 482767 461080 448505
1800.2239 445769 449561 456221 464495 475456 490287 508156 525963 539869
1804.5630 547241 547643 542606 534701 526550 519933 515054 510255 502724
1808.9020 490244 473146 455026 441402 436891 442685 456003 471787 485363
1813.2411 494265 498277 498192 494586 487556 477380 465251 453334 444008
1817.5801 438823 437823 439561 441769 442347 440266 435951 430837 426171
1821.9192 421692 415169 403474 384886 361272 338491 324224 324063 337956
1826.2582 359210 376926 380864 366344 336700 302043 274903 264838 274582
1830.5973 299453 330113 357091 374685 382393 383534 382279 381067 379786
1834.9363 376846 371076 363053 355062 349846 349044 352273 357385 361686
1839.2754 363335 362020 358426 352840 344005 329384 307077 278325 248673
1843.6144 226423 218770 227814 249065 273616 292755 302196 303404 301544
1847.9535 301748 306214 313709 321223 326206 327876 327070 325214 323361
1852.2925 321856 320578 319330 318053 316784 315520 314138 312429 310217
1856.6316 307489 304448 301463 298912 297005 295691 294712 293783 292772
1860.9706 291771 291007 290644 290587 290401 289392 286834 282217 275381
1865.3097 266447 255610 243019 228940 214194 200553 190638 187125 191520
1869.6487 203206 219405 236206 250121 259311 263876 265201 264911 264116
1873.9878 263236 262282 261204 260030 258806 257504 256034 254341 252492
1878.3268 250650 248990 247622 246556 245716 244945 244030 242744 240937
1882.6659 238603 235903 233131 230673 228948 228274 228604 229237 228779
1887.0049 225591 218691 208622 197661 189036 185457 187782 194633 203153
1891.3440 210384 214422 214793 212100 207441 202031 197088 193727 192688
1895.6830 193981 196788 199803 201868 202484 201885 200672 199352 198108
1900.0221 196881 195586 194231 192873 191518 190117 188666 187267 186079
1904.3611 185158 184341 183298 181702 179398 176446 173038 169412 165844
1908.7002 162706 160471 159591 160270 162268 164892 167223 168492 168427
1913.0392 167349 165955 164831 163969 162609 159570 153999 146111 137459
1917.3783 130440 127243 128772 134123 140930 146367 148305 146097 140682
1921.7173 134078 128528 125656 125946 128700 132459 135682 137368 137332
1926.0564 136061 134289 132587 131170 129974 128852 127714 126543 125329
1930.3954 124024 122564 120945 119257 117656 116275 115146 114181 113233
1934.7345 112179 110981 109678 108329 106969 105617 104324 103185 102249
1939.0735 101353 100044 97714 93981 89075 83951 79941 78100 78623 80736 83128
1944.3768 84654 84870 84086 82988 82151 81751 81614 81455 81100 80538 79843
1949.6801 79071 78232 77325 76379 75441 74530 73607 72600 71459 70204 68917
1954.9834 67691 66576 65547 64538 63484 62359 61178 59973 58770 57586 56440
1960.2866 55365 54405 53592 52934 52404 51951 51508 50988 50283 49293 47978
1965.5900 46419 44838 43535 42767 42624 42980 43548 44014 44166 43956 43482
1970.8932 42898 42337 41859 41458 41095 40732 40347 39937 39498 39029 38538
1976.1965 38062 37676 37491 37617 38116 38975 40105 41374 42651 43847 44920
1981.4998 45866 46697 47427 48077 48677 49267 49869 50460 50956 51235 51216
1986.8031 50940 50599 50457 50693 51250 51814 51962 51418 50263 48937 48031
1992.1063 47973 48810 50213 51682 52809 53439 53659 53657 53586 53494 53362
1997.4097 53164 52910 52629 52345 52053 51726 51343 50899 50407 49879 49311
2002.7129 48684 47973 47158 46230 45205 44125 43059 42093 41310 40762 40451
2008.0162 40330 40323 40358 40387 40398 40407 40437 40506 40617 40753 40867
2013.3195 40886 40723 40318 39674 38883 38101 37497 37179 37156 37349 37639
2018.6228 37919 38133 38272 38341 38349 38293 38174 38010 37834 37687 37598
2023.9260 37572 37593 37627 37640 37610 37537 37442 37355 37298 37279 37285
2029.2294 37297 37305 37310 37327 37371 37443 37533 37627 37727 37859 38072
2034.5326 38418 38925 39578 40326 41099 41845 42537 43169 43736 44218 44595
2039.8359 44867 45086 45352 45777 46434 47319 48347 49388 50322 51085 51686
2045.1392 52192 52689 53231 53826 54442 55061 55731 56592 57836 59623 61970
2050.4424 64704 67496 69977 71877 73122 73840 74278 74692 75252 76000 76883
2055.7458 77801 78666 79439 80126 80764 81392 82029 82669 83291 83879 84425
2061.0491 84924 85355 85670 85808 85745 85540 85352 85392 85837 86737 87986
2066.3523 89365 90646 91694 92507 93183 93845 94569 95363 96182 96971 97693
2071.6555 98343 98942 99532 100164 100890 101735 102684 103679 104646 105532
2076.4768 106335 107099 107887 108738 109650 110590 111517 112415 113290
2080.8159 114161 115039 115923 116797 117648 118461 119220 119907 120514
2085.1548 121051 121547 122034 122508 122918 123182 123240 123105 122881
2089.4939 122715 122722 122909 123167 123317 123198 122735 121970 121035
2093.8330 120094 119293 118727 118425 118364 118482 118702 118960 119214
2098.1721 119453 119689 119940 120223 120547 120911 121300 121693 122058
2102.5110 122372 122629 122856 123103 123425 123854 124377 124944 125484
2106.8501 125948 126324 126636 126922 127210 127500 127783 128054 128327
2111.1892 128625 128959 129310 129642 129926 130164 130388 130640 130937
2115.5283 131250 131514 131663 131658 131495 131190 130761 130214 129549
2119.8672 128783 127953 127111 126295 125506 124705 123833 122845 121727
2124.2063 120501 119200 117849 116454 115014 113531 112017 110486 108937
2128.5454 107348 105685 103911 102005 99962 97789 95502 93127 90701 88275
2133.3665 85902 83637 81524 79603 77901 76428 75168 74070 73065 72088 71100
2138.6699 70096 69094 68109 67139 66162 65154 64107 63034 61961 60911 59887
2143.9731 58875 57854 56814 55762 54725 53737 52825 51999 51241 50518 49790
2149.2764 49025 48205 47331 46410 45454 44470 43465 42451 41443 40457 39491
2154.5796 38521 37491 36337 35008 33508 31911 30365 29056 28157 27773 27910
2159.8831 28480 29343 30355 31405 32428 33391 34282 35096 35843 36549 37251
2165.1863 37983 38768 39605 40479 41360 42215 43005 43693 44253 44683 45008
2170.4895 45271 45511 45745 45959 46117 46188 46165 46080 45985 45936 45972
2175.7927 46109 46343 46659 47031 47421 47770 48019 48123 48086 47962 47843
2181.0962 47816 47933 48191 48550 48958 49384 49824 50290 50795 51336 51899
2186.3994 52471 53051 53646 54264 54896 55509 56066 56539 56933 57275 57604
2191.7026 57943 58290 58638 58986 59357 59781 60277 60827 61386 61902 62353
2197.0059 62759 63167 63622 64138 64689 65229 65720 66144 66511 66841 67150
2202.3093 67442 67717 67978 68236 68508 68807 69137 69497 69886 70304 70751
2207.6125 71215 71672 72089 72447 72753 73047 73385 73804 74309 74860 75403
2212.9158 75895 76324 76708 77073 77434 77792 78142 78494 78874 79308 79804
2218.2190 80338 80862 81330 81720 82048 82356 82694 83099 83587 84155 84790
2223.5225 85468 86160 86832 87453 88000 88471 88888 89295 89741 90264 90872
2228.8257 91542 92231 92907 93563 94222 94916 95659 96432 97190 97886 98500
2234.1289 99050 99582 100144 100763 101438 102147 102857 103549 104217 104875
2238.9502 105548 106251 106986 107736 108477 109189 109870 110529 111175
2243.2891 111810 112431 113050 113698 114416 115225 116099 116966 117738
2247.6282 118363 118854 119278 119719 120235 120834 121493 122177 122858
2251.9673 123514 124121 124652 125093 125465 125831 126279 126885 127685
2256.3064 128660 129749 130875 131971 132996 133945 134836 135704 136582
2260.6453 137483 138400 139308 140180 141009 141809 142614 143452 144333
2264.9844 145241 146149 147044 147941 148887 149940 151137 152473 153905
2269.3235 155369 156813 158220 159607 161012 162466 163986 165561 167166
2273.6626 168779 170392 172023 173707 175484 177380 179392 181503 183692
2278.0015 185950 188285 190709 193229 195845 198560 201377 204294 207286
2282.3406 210291 213219 215989 218557 220938 223185 225366 227529 229690
2286.6797 231834 233941 235988 237969 239891 241772 243633 245479 247285
2291.0188 248997 250553 251910 253073 254088 255014 255883 256680 257362
2295.3577 257904 258332 258721 259144 259616 260063 260363 260413 260197
2299.6968 259802 259366 259011 258784 258652 258526 258289 257816 256988
2304.0359 255707 253937 251731 249228 246606 244009 241492 239018 236507
2308.3750 233904 231224 228543 225965 223574 221420 219530 217933 216668
2312.7139 215760 215185 214830 214491 213908 212825 211057 208533 205299
2317.0530 201495 197307 192928 188540 184313 180407 176962 174073 171767
2321.3921 170021 168819 168213 168328 169283 171035 173252 175329 176560
2325.7312 176415 174746 171819 168133 164177 160261 156518 153009 149836
2330.0701 147140 145040 143573 142712 142416 142628 143191 143752 143799
2334.4092 142876 140876 138190 135556 133672 132804 132652 132563 131931
2338.7483 130536 128624 126716 125297 124585 124483 124727 125109 125631
2343.0874 126526 128130 130770 134778 140672 149289 161606 178115 197994
2347.4263 218626 235987 245959 245979 236154 219163 199022 179406 162456
2351.7654 148565 137014 126868 117565 109002 101287 94495 88579 83437 78995
2356.5867 75220 72083 69533 67513 65986 64941 64360 64184 64310 64625 65053
2361.8899 65582 66258 67156 68337 69832 71628 73696 76006 78555 81370 84498
2367.1931 87985 91862 96140 100812 105867 111291 117076 123222 129738 136644
2372.0144 143964 151715 159906 168525 177544 186920 196610 206581 216824
2376.3533 227344 238148 249223 260527 271994 283553 295138 306693 318158
2380.6924 329449 340454 351034 361041 370339 378816 386394 393028 398702
2385.0315 403430 407252 410228 412437 413961 414887 415292 415251 414834
2389.3706 414107 413128 411952 410627 409197 407698 406158 404587 402984
2393.7095 401344 399670 397981 396304 394663 393063 391494 389938 388381
2398.0486 386818 385251 383676 382083 380459 378798 377108 375412 373736
2402.3877 372100 370509 368948 367392 365818 364215 362605 361039 359588
2406.7268 358319 357273 356443 355780 355204 354630 353995 353265 352441
2411.0657 351547 350616 349672 348729 347787 346849 345925 345026 344161
2415.4048 343320 342481 341624 340746 339866 339009 338183 337376 336562
2419.7439 335725 334881 334070 333329 332671 332070 331477 330847 330157
2424.0830 329411 328628 327831 327041 326281 325572 324934 324373 323877
2428.4219 323418 322964 322489 321979 321438 320878 320311 319747 319183
2432.7610 318616 318043 317478 316953 316503 316152 315895 315695 315499
2437.1001 315259 314951 314585 314192 313812 313479 313207 312997 312835
2441.4392 312703 312582 312460 312336 312216 312114 312038 311990 311958
2445.7781 311925 311880 311831 311803 311831 311937 312114 312328 312532
2450.1172 312695 312817 312926 313056 313229 313444 313686 313941 314202
2454.4563 314462 314703 314900 315033 315109 315158 315224 315333 315478
2458.7954 315621 315718 315744 315707 315634 315551 315461 315346 315173
2463.1343 314918 314582 314191 313793 313434 313139 312904 312696 312474
2467.4734 312212 311910 311594 311294 311023 310769 310501 310197 309853
2471.8125 309492 309150 308850 308586 308326 308028 307670 307266 306859
2476.1516 306498 306203 305953 305695 305383 305009 304615 304263 303994
2480.4905 303801 303630 303415 303121 302759 302382 302047 301789 301606
2484.8296 301462 301314 301132 300909 300669 300441 300246 300077 299900
2489.1687 299677 299391 299062 298739 298471 298278 298144 298030 297905
2493.5078 297763 297623 297505 297411 297314 297175 296967 296698 296410
2497.8467 296169 296030 296007 296065 296135 296143 296043 295842 295579
2502.1858 295310 295071 294874 294706 294554 294414 294296 294203 294130
2506.5249 294057 293958 293819 293643 293445 293247 293062 292893 292735
2510.8640 292591 292466 292369 292299 292234 292146 292011 291832 291637
2515.2029 291469 291355 291287 291231 291150 291027 290882 290753 290676
2519.5420 290657 290673 290687 290664 290588 290468 290329 290203 290116
2523.8811 290081 290090 290119 290137 290124 290077 290003 289918 289829
2528.2202 289740 289652 289573 289519 289506 289541 289610 289684 289729
2532.5591 289726 289683 289637 289643 289745 289950 290221 290487 290667
2536.8982 290715 290634 290474 290308 290200 290179 290242 290362 290514
2541.2373 290685 290875 291093 291340 291602 291855 292070 292226 292329
2545.5764 292408 292512 292690 292967 293329 293728 294100 294398 294613
2549.9153 294776 294940 295147 295405 295694 295983 296257 296528 296819
2554.2544 297150 297514 297880 298218 298514 298781 299048 299341 299672
2558.5935 300034 300414 300805 301214 301651 302125 302636 303170 303710
2562.9326 304242 304759 305264 305759 306243 306706 307138 307536 307914
2567.2715 308299 308717 309182 309687 310208 310716 311200 311665 312132
2571.6106 312623 313151 313719 314327 314975 315664 316390 317137 317877
2575.9497 318584 319247 319881 320518 321193 321925 322704 323500 324279
2580.2888 325020 325728 326428 327153 327920 328726 329543 330341 331110
2584.6279 331864 332644 333488 334414 335409 336443 337488 338533 339583
2588.9668 340645 341718 342794 343866 344944 346048 347201 348412 349670
2593.3059 350948 352223 353478 354714 355942 357174 358423 359702 361017
2597.6450 362371 363761 365179 366618 368073 369539 371009 372472 373918
2601.9841 375348 376775 378223 379711 381244 382806 384375 385932 387473
2606.3230 389017 390588 392208 393881 395596 397331 399066 400794 402525
2610.6621 404276 406067 407904 409782 411690 413624 415598 417630 419732
2615.0012 421886 424050 426163 428183 430106 431970 433844 435792 437852
2619.3403 440026 442288 444604 446942 449282 451610 453921 456224 458545
2623.6792 460924 463403 465998 468691 471422 474123 476740 479265 481739
2628.0183 484227 486786 489435 492142 494852 497520 500147 502790 505533
2632.3574 508442 511520 514699 517869 520932 523854 526676 529486 532375
2636.6965 535399 538562 541832 545159 548494 551800 555054 558250 561397
2641.0354 564519 567645 570797 573991 577229 580517 583864 587282 590774
2645.3745 594321 597886 601427 604911 608331 611697 615031 618354 621686
2649.7136 625050 628474 631981 635561 639161 642700 646102 649340 652453
2654.0527 655520 658616 661768 664947 668095 671163 674131 677002 679780
2658.3916 682453 684998 687399 689655 691782 693794 695686 697434 699002
2662.7307 700355 701473 702349 702993 703429 703696 703841 703910 703937
2667.0698 703933 703890 703786 703599 703315 702937 702493 702034 701621
2671.4089 701304 701099 700971 700843 700621 700243 699708 699083 698471
2675.7478 697967 697609 697370 697175 696952 696662 696312 695932 695543
2680.0869 695131 694657 694080 693389 692608 691790 690984 690225 689523
2684.4260 688873 688265 687689 687131 686572 685997 685397 684779 684161
2688.7651 683561 682988 682439 681904 681378 680857 680345 679840 679336
2693.1040 678823 678297 677763 677236 676738 676285 675878 675508 675153
2697.4431 674792 674412 674018 673621 673230 672838 672421 671951 671412
2701.7822 670821 670216 669650 669155 668733 668355 667977 667564 667108
2706.1213 666632 666178 665791 665500 665304 665172 665056 664912 664720
2710.4602 664490 664256 664048 663873 663704 663492 663192 662792 662325
2714.7993 661858 661459 661162 660947 660744 660462 660040 659470 658807
2719.1384 658144 657570 657133 656815 656546 656233 655807 655259 654646
2723.4775 654073 653640 653399 653317 653288 653179 652881 652360 651656
2727.8164 650852 650033 649249 648511 647810 647140 646506 645922 645389
2732.1555 644888 644387 643862 643315 642781 642308 641939 641682 641506
2736.4946 641349 641148 640856 640459 639971 639425 638850 638263 637664
2740.8337 637042 636390 635716 635035 634368 633723 633100 632493 631906
2745.1726 631353 630855 630421 630041 629697 629374 629074 628801 628547
2749.5117 628273 627921 627446 626837 626132 625392 624669 623987 623344
2753.8508 622733 622156 621623 621137 620681 620226 619742 619222 618680
2758.1899 618143 617631 617145 616665 616168 615643 615096 614549 614026
2762.5288 613540 613084 612640 612190 611733 611282 610857 610464 610089
2766.8679 609699 609262 608762 608207 607617 607023 606446 605899 605379
2771.2070 604875 604371 603864 603371 602931 602580 602318 602094 601818
2775.5461 601405 600819 600099 599334 598620 598012 597510 597081 596687
2779.8850 596307 595937 595569 595184 594754 594257 593687 593056 592380
2784.2241 591671 590936 590190 589468 588824 588309 587947 587715 587545
2788.5632 587354 587081 586704 586240 585712 585128 584473 583734 582923
2792.9023 582092 581303 580596 579963 579363 578764 578181 577684 577349
2797.2412 577202 577185 577172 577024 576655 576060 575301 574474 573664
2801.5803 572926 572279 571707 571173 570630 570038 569381 568673 567948
2805.9194 567243 566596 566038 565605 565324 565200 565193 565218 565166
2810.2585 564945 564518 563903 563162 562367 561576 560825 560127 559486
2814.5974 558894 558341 557810 557290 556774 556267 555773 555298 554837
2818.9365 554375 553888 553361 552789 552197 551626 551120 550707 550378
2823.2756 550093 549798 549443 549005 548482 547892 547258 546603 545942
2827.6147 545285 544636 543999 543385 542814 542299 541839 541411 540979
2831.9536 540513 540011 539494 538979 538453 537864 537157 536320 535420
2836.2927 534595 533986 533655 533545 533495 533312 532858 532097 531083
2840.6318 529914 528676 527420 526169 524926 523693 522462 521216 519941
2844.9709 518642 517355 516137 515038 514074 513216 512416 511640 510890
2849.3098 510204 509622 509164 508811 508520 508239 507935 507593 507224
2853.6489 506849 506495 506175 505883 505593 505277 504931 504596 504353
2857.9880 504285 504424 504721 505048 505257 505242 504989 504568 504095
2862.3271 503672 503349 503121 502951 502796 502625 502418 502162 501841
2866.6660 501435 500935 500340 499663 498936 498200 497509 496922 496496
2871.0051 496273 496267 496448 496736 497022 497187 497142 496851 496342
2875.3442 495691 494989 494317 493719 493201 492739 492304 491874 491452
2879.6833 491060 490728 490467 490260 490059 489801 489442 488978 488447
2884.0222 487919 487453 487078 486776 486490 486159 485749 485265 484748
2888.3613 484246 483784 483348 482899 482387 481776 481052 480218 479295
2892.7004 478324 477380 476558 475945 475579 475409 475306 475105 474678
2897.0396 473987 473095 472129 471221 470448 469818 469283 468781 468276
2901.3784 467766 467277 466829 466424 466034 465619 465143 464586 463944
2905.7175 463221 462425 461578 460717 459893 459145 458476 457840 457154
2910.0566 456336 455353 454232 453053 451903 450827 449814 448808 447750
2914.3958 446619 445455 444343 443374 442600 442005 441513 441021 440449
2918.7346 439777 439045 438329 437694 437163 436709 436284 435852 435406
2923.0737 434968 434562 434193 433841 433471 433064 432634 432236 431952
2927.4128 431865 432030 432436 433006 433603 434076 434309 434259 433965
2931.7520 433523 433044 432620 432307 432124 432062 432088 432158 432226
2936.0908 432262 432265 432261 432286 432354 432444 432502 432468 432308
2940.4299 432046 431754 431529 431435 431471 431562 431592 431465 431157
2944.7690 430719 430243 429799 429389 428943 428362 427573 426564 425392
2949.1082 424165 423008 422042 421350 420956 420801 420756 420661 420390
2953.4470 419898 419234 418507 417821 417235 416749 416330 415948 415587
2957.7861 415240 414901 414556 414200 413860 413590 413454 413485 413654
2962.1252 413875 414034 414045 413884 413594 413266 412996 412849 412842
2966.4644 412953 413135 413346 413560 413771 413983 414191 414366 414462
2970.8032 414430 414254 413966 413653 413430 413389 413555 413866 414180
2975.1423 414335 414212 413787 413144 412434 411806 411353 411097 411003
2979.4814 411025 411123 411259 411377 411397 411240 410868 410308 409640
2983.8206 408945 408257 407541 406728 405777 404733 403723 402906 402394
2988.1594 402197 402230 402373 402542 402714 402914 403147 403367 403478
2992.4985 403395 403106 402702 402349 402214 402396 402888 403580 404302
2996.8376 404873 405145 405032 404522 403675 402607 401458 400350 399353
3001.1768 398463 397626 396782 395915 395072 394350 393849 393632 393701
3005.5156 393998 394408 394770 394910 394698 394112 393261 392337 391503
3009.8547 390807 390186 389563 388964 388545 388490 388853 389477 390064
3014.1938 390358 390307 390079 389931 390036 390401 390911 391451 391979
3018.5330 392504 393004 393370 393454 393184 392650 392087 391742 391721
3022.8718 391922 392109 392066 391740 391257 390829 390616 390640 390795
3027.2109 390905 390774 390212 389053 387234 384902 382471 380530 379611
3031.5500 379922 381235 383004 384656 385870 386654 387223 387774 388344
3035.8892 388815 389044 388982 388703 388349 388041 387841 387753 387759
3040.2280 387836 387960 388096 388200 388231 388171 388042 387900 387807
3044.5671 387777 387731 387488 386826 385602 383880 381965 380329 379424
3048.9063 379482 380398 381773 383095 383961 384238 384060 383677 383254
3053.2454 382750 381963 380723 379087 377410 376203 375866 376458 377644
3057.5842 378863 379611 379673 379183 378505 377998 377811 377803 377628
3061.9233 376945 375626 373852 372035 370600 369778 369526 369641 369951
3066.2625 370445 371238 372411 373852 375256 376273 376701 376584 376150
3070.6016 375650 375225 374870 374509 374077 373569 373021 372473 371947
3074.9404 371445 370955 370449 369877 369196 368399 367558 366801 366252
3079.2795 365959 365867 365857 365844 365842 365962 366323 366941 367682
3083.6187 368305 368581 368411 367872 367163 366493 365992 365682 365520
3087.9578 365471 365535 365730 366042 366388 366638 366681 366470 366023
3092.2966 365363 364454 363209 361574 359660 357791 356413 355889 356294
3096.6357 357347 358529 359318 359418 358846 357862 356810 355968 355472
3100.9749 355322 355438 355722 356100 356524 356953 357321 357528 357475
3105.3140 357131 356586 356039 355718 355764 356153 356714 357206 357422
3109.6528 357254 356713 355908 355007 354183 353528 352994 352404 351571
3113.9919 350452 349245 348309 347937 348133 348577 348831 348660 348223
3118.3311 347960 348251 349070 349926 350142 349307 347585 345653 344318
3122.6702 344059 344775 345895 346738 346889 346382 345606 345044 345016
3127.0090 345564 346512 347610 348662 349543 350140 350287 349784 348528
3131.3481 346652 344578 342880 342039 342196 343092 344208 345047 345362
3135.6873 345218 344877 344608 344556 344715 345002 345326 345616 345813
3140.0264 345854 345692 345330 344845 344363 344001 343810 343759 343762
3144.3652 343723 343584 343336 343009 342640 342253 341848 341411 340930
3148.7043 340425 339950 339586 339409 339454 339691 340035 340380 340634
3153.0435 340747 340715 340558 340304 339982 339616 339230 338849 338490
3157.3826 338163 337875 337625 337411 337228 337059 336891 336721 336560
3161.7214 336427 336329 336249 336146 335983 335750 335481 335237 335065
3166.0605 334967 334899 334798 334625 334391 334143 333929 333767 333640
3170.3997 333511 333354 333162 332945 332717 332501 332331 332234 332186
3174.7388 332062 331645 330727 329260 327474 325848 324913 324984 325986
3179.0776 327480 328904 329851 330231 330216 330041 329814 329468 328876
3183.4167 328006 327016 326184 325761 325830 326276 326873 327405 327765
3187.7559 327956 328039 328069 328061 328004 327891 327742 327588 327451
3192.0950 327330 327200 327030 326785 326416 325851 325011 323867 322503
3196.4338 321148 320115 319672 319909 320688 321699 322616 323237 323536
3200.7729 323622 323640 323686 323780 323888 323971 324006 324003 323995
3205.1121 324024 324099 324168 324093 323688 322815 321504 320011 318760
3209.4512 318161 318390 319258 320264 320827 320581 319563 318191 317039
3213.7900 316546 316828 317667 318671 319469 319841 319734 319222 318454
3218.1292 317628 316965 316664 316821 317382 318161 318930 319533 319943
3222.4683 320239 320512 320787 320988 320993 320709 320147 319420 318691
3226.8074 318086 317641 317305 317004 316706 316447 316291 316267 316347
3231.1462 316478 316659 316966 317497 318262 319109 319767 319990 319715
3235.4854 319116 318501 318130 318077 318212 318317 318237 317958 317604
3239.8245 317350 317317 317501 317746 317774 317285 316118 314391 312547
3244.1636 311220 310969 312001 314059 316542 318784 320341 321109 321254
3248.5024 321050 320730 320431 320199 319987 319658 319009 317885 316327
3252.8416 314653 313363 312888 313342 314448 315697 316646 317138 317309
3257.1807 317410 317593 317830 317996 318017 317958 317977 318201 318625
3261.5198 319117 319500 319655 319580 319365 319134 318983 318946 319005
3265.8586 319115 319226 319304 319326 319291 319231 319215 319321 319566
3270.1978 319834 319874 319413 318332 316803 315260 314178 313811 314048
3274.5369 314526 314897 315069 315228 315647 316430 317416 318289 318818
3278.8760 319012 319082 319253 319590 319967 320194 320179 320001 319855
3283.2148 319924 320279 320859 321510 322056 322341 322268 321830 321127
3287.5540 320338 319645 319139 318778 318429 317983 317448 316974 316772
3291.8931 316997 317662 318639 319721 320704 321435 321836 321904 321713
3296.2322 321405 321145 321068 321216 321533 321903 322208 322379 322401
3300.5710 322293 322088 321826 321560 321354 321274 321362 321619 321988
3304.9102 322344 322505 322277 321541 320338 318913 317657 316953 317006
3309.2493 317736 318806 319775 320302 320283 319873 319396 319182 319427
3313.5884 320123 321076 322008 322676 322974 322955 322788 322657 322677
3317.9272 322851 323093 323288 323347 323230 322944 322520 322003 321453
3322.2664 320949 320577 320397 320414 320573 320778 320950 321063 321156
3326.6055 321302 321548 321875 322202 322432 322513 322477 322407 322372
3330.9446 322370 322316 322097 321649 320983 320166 319253 318269 317243
3335.2834 316294 315656 315614 316341 317759 319519 321140 322225 322629
3339.6226 322480 322069 321685 321496 321534 321733 321990 322210 322317
3343.9617 322277 322098 321831 321539 321262 321004 320739 320460 320201
3348.3008 320044 320072 320320 320745 321233 321645 321877 321880 321657
3352.6396 321226 320597 319778 318813 317816 316963 316428 316296 316516
3356.9788 316922 317315 317551 317573 317392 317051 316607 316140 315755
3361.3179 315536 315473 315426 315167 314518 313482 312280 311256 310705
3365.6570 310732 311237 312009 312867 313728 314602 315508 316414 317230
3369.9958 317850 318208 318296 318154 317835 317390 316873 316352 315913
3374.3350 315642 315581 315704 315912 316075 316096 315952 315712 315496
3378.6741 315411 315503 315733 315994 316146 316056 315633 314846 313751
3383.0132 312487 311264 310318 309854 309974 310637 311646 312708 313537
3387.3521 313970 314031 313883 313683 313429 312900 311778 309903 307500
3391.6912 305205 303832 303958 305578 308029 310256 311293 310718 308833
3396.0303 306492 304680 304061 304722 306226 307891 309155 309790 309910
3400.3694 309795 309680 309645 309642 309611 309554 309540 309626 309792
3404.7083 309935 309942 309766 309461 309145 308934 308883 308967 309106
3409.0474 309204 309187 309026 308744 308413 308130 307982 308020 308228
3413.3865 308523 308774 308852 308693 308327 307852 307336 306699 305684
3417.7256 303958 301330 297961 294416 291485 289865 289864 291304 293654
3422.0645 296298 298772 300851 302491 303698 304452 304717 304510 303961
3426.4036 303298 302759 302482 302439 302467 302365 302021 301460 300825
3430.7427 300287 299958 299870 299989 300253 300596 300941 301209 301339
3435.0818 301314 301172 300977 300787 300644 300575 300590 300638 300559
3439.4207 300070 298867 296809 294097 291319 289281 288659 289610 291550
3443.7598 293242 293247 290598 285382 278919 273334 270677 271998 276881
3448.0989 283685 290364 295375 298187 299204 299254 299053 298935 298902
3452.4380 298831 298636 298305 297858 297325 296747 296188 295714 295355
3456.7769 295089 294871 294668 294457 294174 293677 292774 291346 289492
3461.1160 287585 286181 285779 286560 288246 290167 291540 291819 290951
3465.4551 289406 287942 287253 287652 288966 290672 292176 293092 293374
3469.7942 293264 293098 293090 293199 293153 292611 291388 289609 287717
3474.1331 286300 285830 286443 287869 289563 290936 291585 291372 290350
3478.4722 288596 286099 282815 278872 274768 271373 269640 270155 272789
3482.8113 276699 280707 283812 285521 285849 285060 283443 281283 279004
3487.1504 277235 276645 277597 279880 282753 285323 286993 287700 287804
3491.4893 287747 287735 287643 287135 285898 283840 281189 278477 276396
3495.8284 275566 276261 278239 280789 283019 284212 284043 282505 279672
3500.1675 275517 269997 263375 256498 250743 247548 247794 251407 257442
3504.5066 264542 271434 277144 280913 282086 280227 275504 269004 262617
3508.8455 258369 257539 260081 264748 269824 273989 276810 278631 280069
3513.1846 281517 282958 284118 284736 284725 284149 283100 281642 279873
3517.5237 278054 276633 276051 276400 277130 277080 274932 269937 262500
3521.8628 254237 247358 243666 243702 246510 250151 252641 252821 250721
3526.2017 247348 244103 242173 242165 244067 247435 251656 256165 260565
3530.5408 264656 268400 271841 274953 277489 278910 278529 275884 271182
3534.8799 265517 260620 258164 258984 262652 267708 272405 275518 276762
3539.2190 276629 275835 274777 273308 270889 266952 261245 253991 245838
3543.5579 237667 230350 224556 220687 218933 219423 222296 227630 235172
3547.8970 244056 252712 259166 261688 259527 253352 245147 237551 232944
3552.2361 232666 236666 243660 251676 258760 263610 265919 266293 265755
3556.5752 265060 264235 262655 259653 255220 250261 246142 243838 243304
3560.9141 243559 243359 241901 238985 234577 228275 219240 206787 191210
3565.2532 174226 158687 147706 143683 147634 158976 175715 194957 213650
3569.5923 229393 240999 248526 252792 254696 254831 253554 251308 248777
3573.9314 246676 245378 244758 244429 244124 243860 243725 243557 242924
3578.2705 241525 239649 238187 238046 239382 241330 242534 242106 240193
3582.6094 237636 234942 231434 225367 215054 200227 182656 165587 152412
3586.9485 145480 145669 152653 165313 181831 199565 215241 225771 229437
3591.2876 226638 219592 211116 203293 196932 192022 188596 187168 188373
3595.6267 192216 197659 202961 206511 207529 206214 203402 200141 197432
3599.9656 196135 196850 199754 204543 210573 217080 223239 228029 230153
3604.3047 228353 222057 211887 199530 186973 175735 166704 160617 158482
3608.6438 161227 168628 178439 186776 189871 186164 177256 167054 159692
3612.9829 157629 160959 167970 176203 183243 187076 186306 180495 170484
3617.3218 158371 146955 138898 136013 138945 147223 159492 173826 188106
3621.6609 200476 209712 215358 217580 216888 213879 209015 202379 193445
3626.0000 181134 164419 143432 120451 100000 87583 87491 100719 124157 151549
3630.8210 175814 191668 197406 195163 189659 186019 187621 194875 205407
3635.1602 215485 221930 223548 221435 218117 216113 216729 219613 223179
3639.4993 225526 225375 222620 218342 214331 212296 213032 215835 218446
3643.8384 217691 210685 196169 175350 151681 129545 112411 101419 95251 91374
3648.6594 87930 85098 85098 90878 104340 125137 150589 176512 198347 212166
3653.4807 215500 208124 192623 174241 159519 153948 159664 174534 193293
3657.8196 210164 221468 226769 228140 228334 229173 231008 233209 234993
3662.1587 235940 236037 235510 234681 233865 233141 232020 229283 223287
3666.4978 212696 197230 177932 156870 136582 119703 108840 106316 113390
3670.8369 129084 149366 167634 176756 171962 153153 125386 97169 77311 71696
3675.6580 81297 102170 127322 149650 164683 171967 174535 176817 182202 191508
3680.4792 203045 213920 221633 225072 224657 221871 218568 216195 214999
3684.8181 213521 208898 198249 180626 158297 136221 119713 111683 111318
3689.1572 115137 119673 123798 129083 138073 151903 169056 186049 199398
3693.4963 207385 210537 210782 210113 209716 209932 210728 212095 213991
3697.8354 215935 216685 214439 207666 196213 182037 168942 161210 161667
3702.1743 170195 183631 197234 206987 211405 211775 210703 209975 209190
3706.5134 206099 198409 185719 170135 155084 143155 134622 127800 120989
3710.8525 114506 111114 114392 126146 144807 166021 185042 199142 208381
3715.1917 214364 218226 219576 217200 210811 202181 194535 190493 190130
3719.5305 190726 188560 181550 170897 160519 154644 155158 160442 166411
3723.8696 168993 166453 160205 153790 150884 153564 161678 173288 185564
3728.2087 195506 200387 198219 188469 172731 154673 138781 128281 123436
3732.5479 121467 118364 111535 101531 91715 86176 87426 95403 108164 123322
3737.3689 138986 153699 165979 174398 178380 178897 178027 177263 175803
3741.7080 170419 157516 136231 110386 87662 76168 80343 98543 123641 146191
3746.5291 158456 157348 145105 127664 111633 101342 97333 97014 97051 96084
3751.3503 96035 101047 114605 136675 162828 186135 200758 204997 201824 196593
3756.1714 193484 193097 192750 189161 181523 172735 167928 171334 183677
3760.5105 201802 220564 235465 244233 246638 243298 234905 222589 208869
3764.8496 197815 193628 198183 209232 220823 226103 221032 206785 189371
3769.1887 176652 174485 184135 202206 222832 240646 252851 259519 262437
3773.5276 263575 264167 264638 264939 264672 262915 258177 248998 235135
3777.8667 218569 203411 194409 194768 204536 220512 237672 251198 258078
3782.2058 257687 251476 242230 233230 227428 226661 231121 239356 248920
3786.5449 257412 263370 266606 267906 268387 268910 269791 270857 271721
3790.8838 272128 272149 272084 272018 271288 268302 261069 248378 231010
3795.2229 212185 196705 189022 191082 201043 213568 221710 219649 205144
3799.5620 180643 152539 128866 116442 118670 134762 160384 189098 213943
3803.9011 228909 230393 218532 197822 176195 162329 162150 176328 200256
3808.2400 226560 248618 263057 270104 272179 272031 271514 271180 270239
3812.5791 266638 257538 240610 215892 187108 161183 145667 145208 159017
3816.9182 180812 201283 211806 207641 189413 162578 135374 116081 110448
3821.2573 120080 142237 171076 199755 222533 236108 239938 235793 226959
3825.5962 217416 211018 210631 217267 229464 243325 253563 255492 247303
3829.9353 231425 213868 201423 198048 202629 209766 213262 209984 201377
3834.2744 191619 183985 178400 172099 162636 150561 139434 133260 133654
3838.6135 139120 146846 155137 164225 174893 186481 196428 201994 202741
3842.9524 201525 202996 210660 224656 241771 257410 268004 272332 271285
3847.2915 266695 260128 252231 242682 230544 214803 194923 171236 145107
3851.6306 118875 95690 79183 72800 78674 96384 122385 150857 175951 194356
3856.4517 206612 216198 226834 239687 252326 260139 259331 249538 234345
3860.7908 219341 208932 203897 201283 196720 187728 175921 166600 165856
3865.1299 176806 197196 219774 235304 236620 221754 194805 164388 140476
3869.4690 130845 138272 159430 186024 208040 218001 214326 201969 189790
3873.8079 185997 194216 212369 234664 254986 269322 276000 274463 264338
3878.1470 245960 221793 197094 178596 171640 177571 193117 212017 227709
3882.4861 235488 233400 222204 205056 187034 174130 171448 181175 201434
3886.8252 226822 250402 266082 270271 262468 245050 222693 201419 187098
3891.1641 183564 191154 206604 224642 240499 251891 259316 264624 268923
3895.5032 271295 269184 260184 244048 223538 203477 188482 180718 179054
3899.8423 180100 180384 178228 174165 169902 166826 165292 165088 166458
3904.1814 170602 179111 192748 210565 230057 248230 262824 272957 278984
3908.5203 281935 282978 283101 282976 282883 282755 282410 281849 281313
3912.8594 280906 280004 277036 270138 258520 243645 229202 219507 217165
3917.1985 221498 228919 235126 237725 237513 237578 240878 247972 256418
3921.5376 262147 261846 254830 243426 231844 224351 223641 229998 241359
3925.8765 254125 264467 269687 269144 264266 257591 251334 246319 241933
3930.2156 237077 231421 226051 223048 224295 230324 239954 250894 260858
3934.5547 268457 273413 276139 277161 276849 275558 273905 272745 272723
3938.8938 273637 274168 272337 266579 256866 245167 234866 229367 230567
3943.2327 237960 248822 259351 266209 267757 264431 258200 251445 245907
3947.5718 242233 240257 239667 240500 243084 247533 253282 259109 263731
3951.9109 266513 267780 268459 269361 270630 271755 272068 271297 269785
3956.2500 268266 267432 267597 268601 269907 270789 270566 268879 265946
3960.5889 262620 260122 259491 261053 264240 267915 270982 272915 273858
3964.9280 274300 274603 274732 274347 273170 271309 269304 267854 267396
3969.2671 267838 268604 268981 268541 267362 265931 264791 264197 264007
3973.6062 263872 263561 263187 263154 263873 265460 267615 269767 271366
3977.9451 272139 272146 271650 270930 270159 269407 268734 268245 268076
3982.2842 268303 268865 269576 270211 270626 270829 270949 271127 271399
3986.6233 271634 271569 270936 269614 267739 265707 264060 263275 263555
3990.9624 264713 266223 267417 267776 267152 265840 264438 263576 263638
3995.3013 264613 266133 267685 268846 269441 269551 269394 269179 269003
3999.6404 268859 268688
##END= 
