##TITLE= bkg
##JCAMP-DX= 4.24
##DATA TYPE= INFRARED SPECTRUM
##ORIGIN= JASCO
##OWNER= 
##DATE= 22/03/31
##TIME= 09:31:03
##SPECTROMETER/DATA SYSTEM= 
##RESOLUTION= 
##DELTAX=   0.48211674
##XUNITS= 1/CM
##YUNITS= ARBITRARY UNITS
##XFACTOR= 1.00000
##YFACTOR= 1E-005
##FIRSTX=   599.7532
##LASTX=  4000.1226
##NPOINTS=     7054
##FIRSTY=      1.11352
##MAXY=     10.01546
##MINY=      0.27040
##XYDATA= (X++(Y..Y))
599.7532 111352 111866 112899 114182 115358 116165 116557 116693 116822 117128
604.5744 117655 118322 118998 119567 119964 120176 120231 120205 120205 120345
609.3956 120696 121261 121967 122709 123395 123987 124506 125002 125499 125946
614.2167 126186 125997 125203 123809 122096 120575 119801 120122 121497 123515
619.0379 125607 127323 128534 129418 130267 131258 132325 133207 133630 133483
623.8591 132903 132210 131762 131800 132364 133303 134348 135240 135820 136076
628.6802 136112 136063 136009 135943 135815 135602 135349 135140 135018 134926
633.5014 134731 134334 133774 133249 133024 133272 133967 134894 135758 136333
638.3226 136549 136481 136270 136045 135877 135774 135707 135631 135511 135333
643.1437 135122 134936 134845 134878 134983 135007 134737 133996 132743 131128
647.9649 129457 128080 127244 127002 127215 127636 128032 128269 128345 128353
652.7861 128421 128658 129124 129831 130759 131867 133088 134317 135422 136292
657.6072 136902 137348 137809 138451 139343 140443 141645 142837 143920 144808
662.4284 145491 146134 147073 148516 149977 149802 145348 134099 115352 91503
667.2496 67916 51102 45989 53745 71374 93261 113720 129108 138546 143223
672.0707 145052 145586 145640 145483 145190 144825 144432 143973 143340 142443
676.8919 141275 139907 138446 137004 135697 134658 134015 133840 134117 134771
681.7131 135727 136969 138526 140409 142536 144715 146704 148300 149415 150084
686.5342 150435 150631 150841 151220 151893 152924 154268 155759 157150 158196
691.3554 158756 158855 158680 158503 158591 159119 160128 161543 163221 165021
696.1766 166846 168660 170453 172198 173825 175235 176346 177142 177679 178051
700.9977 178333 178555 178713 178807 178882 179025 179330 179854 180594 181491
705.8189 182467 183449 184396 185294 186152 186986 187810 188631 189443 190223
710.6401 190931 191510 191900 192073 192063 191983 191983 192189 192638 193269
715.4612 193968 194616 195094 195236 194794 193505 191276 188383 185520 183595
720.2824 183321 184851 187671 190849 193486 195110 195791 195961 196089 196436
725.1036 196999 197620 198134 198463 198613 198643 198616 198593 198626 198749
729.9247 198965 199254 199578 199903 200202 200447 200598 200606 200432 200065
734.7459 199522 198843 198074 197262 196447 195653 194873 194055 193113 191958
739.5671 190550 188919 187145 185309 183435 181482 179384 177121 174760 172438
744.3882 170300 168418 166759 165215 163673 162089 160518 159098 157986 157291
749.2094 157026 157119 157461 157981 158697 159697 161053 162724 164523 166182
754.0306 167496 168428 169102 169676 170202 170584 170696 170562 170445 170746
758.8517 171745 173373 175171 176499 176868 176176 174725 173020 171517 170457
763.6729 169875 169718 169965 170663 171889 173676 175965 178615 181439 184265
768.4941 186981 189558 192052 194562 197185 199961 202854 205771 208601 211260
773.3152 213711 215952 217993 219839 221492 222956 224254 225424 226503 227513
778.1364 228443 229261 229937 230470 230908 231328 231792 232307 232802 233167
782.9576 233314 233233 233005 232760 232607 232586 232670 232808 232969 233158
787.7787 233385 233631 233839 233945 233935 233869 233854 233981 234260 234609
792.5999 234890 234992 234882 234625 234344 234161 234143 234281 234502 234701
797.4211 234789 234723 234526 234283 234103 234080 234254 234603 235060 235547
802.2422 236010 236421 236773 237060 237277 237428 237534 237637 237773 237964
807.0634 238206 238495 238834 239235 239694 240175 240615 240959 241200 241391
811.8846 241611 241917 242304 242714 243074 243341 243518 243643 243761 243907
816.7057 244098 244338 244630 244974 245375 245835 246344 246876 247380 247805
821.5269 248124 248364 248598 248908 249333 249847 250373 250836 251218 251569
826.3481 251977 252520 253215 254014 254832 255592 256260 256857 257435 258035
831.1693 258661 259272 259802 260203 260474 260665 260861 261143 261555 262094
835.9904 262716 263350 263923 264387 264730 264986 265224 265523 265939 266485
840.8116 267119 267770 268363 268862 269284 269689 270149 270702 271328 271958
845.6328 272512 272939 273245 273484 273727 274036 274444 274958 275564 276221
850.4539 276867 277436 277890 278247 278577 278977 279518 280209 281006 281837
855.2751 282647 283410 284136 284845 285558 286280 286998 287695 288357 288999
860.0963 289665 290418 291306 292319 293391 294424 295346 296150 296893 297653
864.9174 298484 299392 300348 301328 302329 303372 304475 305639 306836 308032
869.7386 309198 310325 311425 312521 313632 314763 315895 316988 317999 318914
874.5598 319760 320602 321514 322541 323680 324892 326132 327381 328644 329934
879.3809 331251 332574 333886 335192 336518 337891 339303 340700 342010 343195
884.2021 344285 345379 346595 348010 349611 351302 352940 354399 355620 356630
889.0233 357529 358441 359457 360600 361812 362997 364074 365017 365859 366664
893.8444 367484 368334 369207 370093 371002 371961 372994 374110 375303 376559
898.6656 377866 379212 380578 381939 383267 384545 385770 386946 388081 389179
903.4868 390252 391319 392405 393526 394673 395811 396894 397883 398762 399536
908.3079 400222 400843 401426 402004 402619 403305 404081 404935 405840 406762
913.1291 407689 408633 409620 410677 411813 413012 414239 415455 416626 417729
917.9503 418749 419678 420508 421234 421851 422372 422823 423248 423692 424186
922.7714 424730 425292 425826 426296 426694 427036 427350 427664 428003 428393
927.5926 428862 429421 430041 430644 431139 431472 431678 431877 432218 432796
932.4138 433600 434512 435367 436033 436455 436661 436731 436753 436798 436904
937.2349 437086 437334 437625 437930 438217 438465 438661 438798 438882 438930
942.0561 438973 439050 439196 439420 439703 439992 440228 440361 440371 440271
946.8773 440104 439924 439781 439705 439697 439727 439752 439732 439654 439542
951.6984 439439 439389 439411 439489 439577 439627 439603 439495 439321 439122
956.5196 438959 438897 438992 439267 439709 440273 440897 441515 442065 442485
961.3408 442723 442758 442623 442417 442263 442252 442392 442605 442784 442862
966.1619 442859 442866 442980 443240 443604 443979 444275 444453 444535 444587
970.9831 444689 444914 445311 445896 446646 447503 448401 449287 450145 450993
975.8043 451860 452770 453727 454728 455769 456856 457993 459167 460347 461479
980.6254 462504 463369 464051 464568 464989 465417 465963 466699 467633 468703
985.4466 469806 470843 471760 472559 473295 474050 474907 475927 477130 478488
990.2678 479937 481402 482821 484172 485464 486719 487950 489153 490307 491399
995.0889 492424 493396 494331 495241 496129 496991 497809 498556 499202 499728
999.9101 500138 500466 500762 501072 501418 501794 502179 502548 502887 503192
1004.7313 503467 503717 503953 504193 504457 504756 505085 505431 505785
1009.0703 506156 506565 507026 507525 508007 508395 508627 508685 508603
1013.4094 508443 508248 508015 507701 507254 506661 505967 505261 504630
1017.7484 504113 503691 503309 502925 502537 502183 501910 501742 501667
1022.0875 501648 501642 501611 501521 501342 501059 500693 500309 499986
1026.4265 499769 499637 499507 499291 498957 498557 498187 497918 497733
1030.7656 497542 497235 496760 496155 495524 494970 494544 494236 493999
1035.1046 493791 493588 493385 493173 492935 492654 492320 491937 491512
1039.4437 491041 490503 489872 489139 488324 487477 486650 485869 485116
1043.7827 484344 483505 482583 481615 480674 479842 479178 478699 478388
1048.1218 478209 478123 478095 478101 478116 478118 478081 477973 477765
1052.4608 477432 476969 476388 475721 475000 474248 473476 472679 471842
1056.7999 470942 469953 468860 467678 466467 465323 464337 463558 462969
1061.1389 462504 462098 461723 461400 461160 461003 460882 460720 460468
1065.4780 460137 459798 459546 459442 459484 459615 459746 459796 459710
1069.8170 459462 459045 458466 457738 456883 455934 454944 453981 453115
1074.1561 452404 451872 451504 451256 451075 450919 450776 450648 450546
1078.4951 450478 450455 450501 450664 451001 451558 452341 453304 454361
1082.8342 455412 456374 457207 457911 458523 459090 459649 460210 460754
1087.1732 461240 461621 461872 461999 462050 462098 462222 462477 462880
1091.5123 463405 464001 464619 465226 465819 466417 467048 467740 468511
1095.8513 469368 470312 471328 472391 473461 474496 475462 476339 477124
1100.1904 477829 478478 479101 479740 480438 481235 482148 483154 484195
1104.5294 485197 486102 486904 487652 488435 489338 490401 491597 492845
1108.8685 494045 495127 496081 496950 497806 498701 499648 500615 501554
1113.2075 502431 503245 504032 504842 505719 506689 507757 508909 510118
1117.5466 511343 512536 513653 514668 515589 516460 517353 518342 519474
1121.8856 520751 522120 523495 524785 525936 526956 527902 528852 529857
1126.2247 530917 531980 532983 533890 534718 535525 536376 537301 538288
1130.5637 539291 540257 541159 541990 542759 543471 544125 544718 545265
1134.9028 545802 546377 547029 547766 548561 549355 550084 550698 551181
1139.2418 551544 551821 552053 552282 552554 552918 553425 554105 554949
1143.5809 555905 556892 557841 558737 559627 560596 561728 563065 564606
1147.9199 566321 568177 570142 572183 574262 576354 578469 580671 583054
1152.2590 585692 588585 591653 594760 597787 600672 603432 606124 608804
1156.5980 611483 614129 616682 619086 621318 623385 625326 627187 629013
1160.9371 630829 632637 634408 636089 637621 638973 640171 641309 642516
1165.2761 643900 645490 647233 649031 650808 652544 654268 656012 657773
1169.6152 659526 661245 662924 664553 666076 667387 668387 669079 669618
1173.9542 670263 671241 672592 674124 675493 676360 676535 676024 674993
1178.2933 673708 672501 671764 671914 673297 676051 680016 684761 689730
1182.6323 694434 698569 702019 704770 706841 708282 709232 709952 710773
1186.9714 711961 713587 715497 717407 719072 720412 721530 722625 723863
1191.3104 725294 726854 728426 729922 731329 732713 734167 735754 737463
1195.6495 739218 740921 742520 744055 745639 747397 749400 751624 753977
1199.9885 756348 758665 760902 763072 765198 767297 769378 771441 773479
1204.3276 775479 777425 779308 781135 782919 784688 786469 788282 790114
1208.6666 791887 793456 794653 795387 795740 795999 796561 797755 799680
1213.0057 802152 804809 807295 809418 811185 812716 814130 815469 816719
1217.3447 817874 818984 820138 821403 822782 824224 825676 827125 828576
1221.6838 829991 831238 832115 832479 832378 832107 832117 832807 834332
1226.0228 836528 839006 841341 843251 844674 845726 846592 847431 848328
1230.3619 849297 850307 851316 852297 853245 854179 855134 856133 857179
1234.7009 858253 859322 860359 861352 862301 863217 864113 865013 865956
1239.0400 866998 868194 869551 870983 872293 873235 873635 873521 873175
1243.3790 873050 873573 874937 877004 879371 881563 883239 884304 884886
1247.7181 885203 885435 885641 885767 885714 885398 884792 883904 882756
1252.0571 881358 879715 877834 875714 873323 870604 867526 864149 860643
1256.3962 857179 853739 850011 845499 839885 833430 827121 822390 820495
1260.7352 821926 826187 832079 838307 844021 848998 853406 857352 860534
1265.0743 862249 861798 859105 855156 851916 851572 855409 862903 871674
1269.4133 878458 880677 877714 871156 863860 858439 856096 856393 857948
1273.7524 859456 860367 860930 861769 863392 865951 869289 873121 877183
1278.0914 881302 885431 889658 894195 899289 905058 911360 917783 923820
1282.4305 929131 933728 937917 942007 945952 949209 950982 950758 948807
1286.7695 946273 944706 945302 948296 952922 957923 962269 965595 968143
1291.1086 970361 972505 974530 976235 977453 978107 978137 977468 976113
1295.4476 974345 972743 971982 972488 974184 976526 978811 980528 981536
1299.7867 981997 982187 982323 982509 982741 982951 983034 982911 982589
1304.1257 982177 981787 981367 980623 979148 976753 973794 971206 970141
1308.4648 971309 974391 977864 979435 976960 969485 957915 944921 934012
1312.8038 928117 928330 933466 940679 946771 949461 947933 942563 934267
1317.1429 924107 913423 904153 898767 899497 907196 920593 936574 951446
1321.4819 962482 968858 971531 972307 972761 973628 974845 975992 976743
1325.8210 977047 977042 976849 976441 975669 974444 972907 971456 970533
1330.1600 970317 970571 970835 970858 970878 971385 972401 972821 970504
1334.4991 963306 950442 933123 913766 894208 874266 851998 825842 797318
1338.8381 772202 758884 764449 790671 832427 879610 921482 950992 966744
1343.1772 971995 971809 970364 969743 970241 971274 971999 971509 968990
1347.5162 964163 957782 951628 947779 947567 950949 956664 962898 967848
1351.8553 969939 967970 961579 951877 941587 934121 931902 935053 941460
1356.1943 948184 953101 955531 955577 952970 946489 934308 914778 887045
1360.5334 851520 810570 769402 736203 720379 728909 762515 814155 871187
1364.8724 920220 951916 963329 957199 939564 917490 897695 885712 884901
1369.2115 895356 913398 932292 944051 941655 921025 882512 831726 779182
1373.5505 738040 719923 730214 765264 813485 860212 893903 910380 913040
1377.8896 909471 906898 909096 915986 925225 934193 941136 945340 946926
1382.2286 946759 946231 946385 946318 941924 926553 894370 845149 787454
1386.5677 737284 711696 720418 760416 817076 871661 910554 930600 937469
1390.9067 938688 936480 925455 896678 845305 776615 706345 654669 636861
1395.2458 655542 698656 744525 771806 769590 742536 708258 688273 697400
1399.5848 737309 797301 860860 913295 946014 956263 944732 914349 871335
1403.9240 826494 793717 784918 804078 844636 892505 933066 957687 965980
1408.2629 963235 955746 947462 939592 932299 926410 923765 926225 934262
1412.6021 946064 957588 963639 959712 943828 917209 882926 843070 796562
1416.9410 740004 672096 599081 536843 506546 524773 593317 694992 798920
1421.2802 873340 899481 879291 833181 789355 770614 785375 826751 878829
1425.6191 925473 956426 968186 961136 936764 897785 850579 806508 779057
1429.9583 777337 800315 836654 871223 893930 904184 907336 905994 893766
1434.2972 857725 789075 694439 598595 534992 529097 584963 683406 792443
1438.6364 882988 940391 966421 972867 972491 972916 975616 978559 979625
1442.9753 978565 976837 975772 974277 967615 948743 912444 860413 803817
1447.3145 760442 746707 768656 817587 873625 915582 931337 922675 902129
1451.6534 884289 876959 876937 872009 847378 792948 708160 602657 493040
1455.9926 397552 331135 302659 314649 364368 444898 545802 654176 756893
1460.3315 843518 908050 947998 961602 946196 900331 829031 747817 680666
1464.6707 650933 669943 730692 811355 886670 939914 968011 977481 975232
1469.0096 961144 927413 864622 770345 654890 540650 454869 418755 437879
1473.3488 498846 574733 637508 671330 679480 680816 697806 743247 813323
1477.6877 890376 952732 985332 985591 962615 931669 907438 899045 908232
1482.0269 930551 958339 983676 999899 1001546 984124 945328 887657 820002
1486.3658 755363 704501 669396 641995 610631 570384 529691 507553 522574
1490.7050 581361 674146 779711 874884 941792 969863 954950 899561 814860
1495.0439 720847 641022 592648 578885 589150 608136 626849 647243 677312
1499.3831 721439 774477 824410 860814 881424 891015 893632 885038 852294
1503.7220 781687 669667 528988 385573 267994 196073 175068 197653 250820
1508.0612 322394 403410 486522 563640 626110 667982 689774 699278 707852
1512.4001 723983 747860 770222 776268 752843 695687 613603 527344 462792
1516.7393 440360 464942 521621 580440 609064 587576 517984 423561 338464
1521.0782 292930 301037 356204 435685 511400 561975 580573 575151 561655
1525.4174 554439 559667 575229 596090 620268 650604 691200 741690 794014
1529.7563 834188 847816 826021 769023 686691 596640 520435 478167 482298
1534.0955 532843 616258 708906 783729 817473 796404 719717 600373 462603
1538.4344 335420 243269 197670 194548 219184 255701 294767 334675 376392
1542.7736 417999 454045 480588 501227 527984 574864 647876 738436 825026
1547.1125 882496 893795 858025 791362 721036 675062 671348 709911 771578
1551.4517 825013 840489 804650 728336 641967 579688 560620 578126 603628
1555.7906 602703 553704 458169 338188 224291 142441 107261 122784 186589
1560.1298 292222 428176 576011 711649 811477 860858 860327 825780 782331
1564.4688 754674 757927 792167 842238 883048 889211 846255 758935 652054
1568.8079 561810 520627 542796 618744 721185 819229 891637 931496 941058
1573.1469 922668 874138 792716 684243 569170 478838 442599 473414 561162
1577.4860 677904 791514 879279 934172 962120 974196 979552 982644 984468
1581.8250 985106 985193 985725 987219 989352 991376 992784 993585 994053
1586.1641 994281 993940 992405 989086 983771 976842 969326 962736 958630
1590.5032 957904 960088 963082 963735 959249 948787 934349 920214 911095
1594.8422 909996 917024 929756 944762 959134 971127 979841 984661 985123
1599.1813 981251 973794 963939 952720 940825 929178 919734 915423 918673
1603.5203 929278 943348 954585 957455 950200 935531 918487 903124 890575
1607.8594 879886 870680 865147 867338 880024 901620 925964 945574 956107
1612.1984 958309 955369 947311 927071 882591 805192 699345 586606 499342
1616.5375 466394 498704 583704 692000 792024 863448 901598 911887 900190
1620.8765 867277 811378 736081 656243 595846 577639 610565 683061 766911
1625.2156 829958 850863 828242 779913 733343 712567 727975 773412 831243
1629.5546 882184 914524 927794 929156 925082 913998 885236 825646 729971
1633.8937 608153 484318 387468 339224 345663 397284 475876 563222 646666
1638.2327 719730 779575 824502 853502 867530 870610 869096 868810 871431
1642.5718 872291 861312 827288 763765 673544 569205 469179 391490 348515
1646.9108 345046 379300 444573 529567 617690 687697 717791 692788 611051
1651.2499 487206 348713 227657 151400 135603 181454 277031 401729 532296
1655.5889 648877 739351 800694 837248 857087 868179 875534 879667 876426
1659.9280 858651 820044 760394 689360 625479 589301 593697 637154 704561
1664.2670 775011 831161 863964 870828 850850 802837 728439 637069 546682
1668.6061 477666 443356 444268 470530 510194 556156 605931 655288 692798
1672.9451 702107 672133 607973 533425 481555 478285 529003 616095 708137
1677.2842 774720 798810 781409 738096 690449 656329 642395 641316 634965
1681.6232 603033 533900 432704 322041 234037 197140 223975 306219 418671
1685.9623 530016 614793 661240 672451 661772 645567 636866 642066 661060
1690.3013 689640 722313 753879 779156 791638 782940 744735 673324 574707
1694.6404 466606 374696 323280 324174 369519 432994 480005 482807 433628
1698.9794 349283 264532 216788 229251 300656 406683 512008 586340 615965
1703.3185 605596 571470 531541 498976 481280 482635 505265 547903 603309
1707.6575 658497 699413 717853 715959 704853 697859 702430 715638 725755
1711.9966 718849 686622 631324 565133 504207 460354 434883 418435 397456
1716.3356 363872 322010 288034 281735 315482 387018 480186 572558 644967
1720.6747 687771 701706 694729 677709 660953 651904 653702 664808 680272
1725.0137 694509 704104 708654 708967 704213 690841 664903 626488 582641
1729.3528 545532 525855 525245 532997 530259 500187 438461 357793 283367
1733.6918 241478 247623 300389 383627 474443 551785 601516 617422 600491
1738.0309 558614 506348 462382 443311 455871 492604 534962 563138 566897
1742.3699 550543 528979 517839 524288 543916 564557 573646 564476 538564
1746.7090 503989 471244 448538 438354 436794 436374 431187 421551 414963
1751.0480 422282 451224 501241 562885 621745 664274 682279 674537 646042
1755.3871 606190 566665 538933 531232 545707 576959 613083 639319 643344
1759.7261 620359 575899 524666 485150 471949 489445 530384 580236 624634
1764.0652 655161 670194 671394 659742 634910 598349 556710 521401 503124
1768.4042 504644 517183 523840 508694 466302 405810 347159 311526 311296
1772.7433 344834 398397 453631 496320 521802 534712 543995 556613 573594
1777.0823 590175 599216 595439 578210 551969 524672 505142 500044 511225
1781.4214 534393 560202 577959 580568 568124 547893 530483 524383 532067
1785.7604 549686 569995 586238 594622 594404 586320 570864 547579 515653
1790.0995 475420 429998 386094 353073 339916 351016 383022 425156 463715
1794.4385 488657 498324 499065 499892 505804 514463 518472 511345 492620
1798.7776 468430 447489 435788 433907 438396 445444 453660 464066 477935
1803.1166 494658 511398 524511 531434 531703 526775 519147 511359 505094
1807.4557 500458 495746 488189 475692 458702 440848 427563 423311 429161
1811.7947 442304 457756 470959 479543 483339 483161 479606 472804 463042
1816.1338 451463 440106 431192 426151 425000 426389 428228 428598 426567
1820.4728 422535 417811 413491 409236 402857 391360 373161 350163 328107
1824.8119 314447 314548 328261 348995 366123 369735 355382 326418 292734
1829.1509 266490 256898 266527 290794 320665 347012 364345 372155 373575
1833.4900 372554 371401 370026 366960 361150 353208 345351 340219 339373
1837.8290 342437 347346 351511 353171 352031 348736 343516 335086 320919
1842.1681 299147 271010 241983 220234 212820 221780 242685 266791 285567
1846.5071 294837 296052 294265 294466 298760 305907 312962 317473 318744
1850.8462 317665 315678 313817 312374 311158 309906 308534 307121 305761
1855.1852 304433 302985 301206 298975 296373 293690 291309 289503 288292
1859.5243 287445 286637 285661 284538 283482 282716 282260 281807 280747
1863.8633 278357 274048 267538 258846 248140 235629 221682 207199 193945
1868.2024 184449 181250 185750 197312 213230 229706 243350 252366 256841
1872.5414 258112 257761 256864 255830 254672 253361 251970 250613 249322
1876.8805 248031 246655 245169 243632 242144 240796 239645 238679 237800
1881.2195 236812 235486 233660 231335 228689 226029 223727 222153 221568
1885.5586 221891 222450 221932 218805 212156 202513 192052 183846 180473
1889.8976 182741 189331 197517 204482 208409 208822 206247 201683 196277
1894.2367 191234 187714 186524 187727 190522 193592 195755 196501 196060
1898.5757 195040 193940 192917 191875 190701 189400 188051 186696 185317
1902.9148 183906 182536 181327 180307 179324 178091 176343 173982 171095
1907.2538 167869 164508 161242 158383 156349 155546 156160 157975 160366
1911.5929 162502 163687 163662 162705 161431 160363 159490 158099 155087
1915.9319 149651 142001 133624 126831 123742 125230 130411 136975 142164
1920.2710 143922 141646 136286 129823 124424 121633 121883 124486 128051
1924.6100 131139 132831 132974 132014 130594 129176 127894 126649 125318
1928.9491 123880 122413 120998 119644 118298 116908 115482 114091 112822
1933.2881 111714 110737 109806 108842 107806 106708 105574 104417 103243
1937.6272 102086 101008 100028 98991 97501 95049 91339 86628 81814 78119 76485
1942.9304 77052 79061 81266 82598 82665 81805 80712 79952 79677 79663 79570
1948.2338 79188 78517 77686 76825 75988 75161 74312 73423 72490 71504 70458
1953.5370 69351 68205 67062 65957 64907 63895 62892 61867 60804 59694 58539
1958.8403 57349 56149 54991 53936 53038 52316 51750 51283 50848 50373 49778
1964.1436 48968 47863 46446 44822 43229 41965 41261 41170 41531 42041 42401
1969.4469 42440 42157 41670 41124 40606 40134 39691 39264 38874 38555 38323
1974.7501 38153 37987 37768 37484 37188 36994 37035 37416 38169 39239 40506
1980.0535 41820 43047 44101 44953 45629 46182 46672 47147 47630 48112 48548
1985.3567 48871 49014 48964 48798 48681 48797 49224 49845 50350 50385 49762
1990.6600 48616 47391 46634 46717 47650 49090 50540 51603 52135 52237 52126
1995.9633 51976 51848 51704 51486 51176 50807 50436 50104 49811 49521 49186
2001.2666 48770 48261 47668 47001 46259 45430 44501 43486 42435 41433 40571
2006.5698 39918 39500 39299 39268 39351 39493 39641 39743 39755 39649 39437
2011.8732 39170 38925 38757 38664 38575 38382 38005 37456 36843 36318 36002
2017.1764 35928 36035 36224 36411 36557 36658 36721 36743 36723 36673 36617
2022.4797 36578 36554 36512 36413 36241 36019 35802 35647 35585 35617 35713
2027.7830 35834 35947 36036 36099 36151 36205 36266 36325 36361 36367 36363
2033.0863 36400 36542 36838 37289 37854 38475 39106 39739 40388 41067 41751
2038.3895 42379 42887 43254 43527 43813 44218 44795 45519 46312 47094 47831
2043.6929 48535 49235 49940 50625 51260 51832 52369 52922 53550 54311 55279
2048.9961 56548 58212 60307 62738 65271 67584 69397 70589 71249 71629 72020
2054.2993 72629 73507 74566 75651 76632 77447 78108 78667 79174 79653 80105
2059.6028 80533 80958 81416 81927 82462 82930 83222 83280 83160 83036 83137
2064.9060 83642 84590 85867 87257 88547 89607 90412 91022 91534 92039 92603
2070.2092 93259 94002 94795 95577 96294 96926 97504 98098 98774 99565 100446
2075.5125 101352 102221 103028 103802 104605 105493 106479 107529 108577
2079.8516 109563 110456 111262 112009 112728 113448 114186 114949 115721
2084.1907 116466 117138 117702 118160 118544 118889 119196 119421 119504
2088.5298 119426 119241 119065 119010 119118 119329 119508 119520 119289
2092.8687 118821 118178 117443 116690 115987 115399 114997 114830 114903
2097.2078 115169 115542 115938 116308 116651 116999 117384 117815 118268
2101.5469 118704 119088 119413 119699 119981 120289 120637 121016 121403
2105.8860 121773 122106 122398 122655 122894 123136 123399 123691 124010
2110.2249 124346 124689 125037 125395 125766 126145 126513 126851 127145
2114.5640 127398 127620 127810 127944 127974 127853 127561 127124 126600
2118.9031 126055 125527 125015 124482 123886 123200 122416 121543 120587
2123.2422 119550 118429 117233 115987 114720 113455 112188 110890 109518
2127.5811 108032 106421 104693 102877 100996 99063 97069 94996 92828 90565
2132.4023 88233 85887 83598 81437 79456 77683 76118 74743 73530 72445 71446
2137.7056 70492 69542 68574 67581 66570 65555 64540 63523 62498 61462 60417
2143.0088 59364 58307 57244 56176 55116 54092 53136 52270 51493 50775 50071
2148.3123 49338 48556 47730 46882 46028 45172 44299 43389 42427 41418 40376
2153.6155 39324 38272 37216 36129 34970 33700 32315 30863 29457 28256 27415
2158.9187 27040 27150 27674 28477 29405 30331 31180 31941 32647 33353 34107
2164.2219 34926 35795 36677 37535 38343 39096 39797 40454 41078 41678 42261
2169.5254 42832 43380 43884 44318 44667 44926 45102 45199 45216 45155 45032
2174.8286 44887 44777 44760 44868 45098 45411 45747 46044 46251 46349 46356
2180.1318 46318 46298 46351 46505 46755 47079 47453 47867 48325 48834 49392
2185.4351 49986 50590 51174 51714 52194 52613 52994 53375 53805 54315 54900
2190.7385 55516 56097 56592 56994 57337 57681 58069 58514 58995 59482 59959
2196.0417 60434 60919 61415 61900 62335 62695 62985 63243 63516 63836 64200
2201.3450 64583 64961 65333 65717 66137 66593 67055 67477 67825 68105 68354
2206.6482 68626 68953 69333 69733 70119 70474 70808 71145 71501 71872 72243
2211.9517 72598 72937 73280 73656 74083 74563 75077 75598 76100 76568 77000
2217.2549 77401 77778 78137 78484 78829 79185 79571 80000 80481 81015 81603
2222.5581 82245 82941 83675 84405 85069 85609 86010 86319 86635 87062 87653
2227.8613 88380 89147 89849 90428 90902 91345 91840 92432 93107 93812 94488
2233.1648 95113 95701 96295 96929 97610 98312 98996 99641 100252 100863 101509
2238.4680 102203 102926 103648 104348 105032 105731 106469 107244 108021
2242.8071 108751 109405 109995 110566 111168 111825 112530 113259 113989
2247.1460 114716 115445 116173 116881 117543 118142 118685 119196 119699
2251.4851 120202 120691 121151 121584 122014 122479 123012 123627 124323
2255.8242 125096 125945 126877 127897 128995 130144 131299 132413 133451
2260.1633 134398 135261 136062 136823 137557 138262 138933 139578 140223
2264.5022 140912 141690 142588 143610 144738 145949 147222 148541 149892
2268.8413 151259 152622 153967 155298 156633 158003 159434 160945 162542
2273.1804 164216 165954 167744 169577 171450 173368 175334 177346 179391
2277.5195 181454 183521 185597 187714 189929 192304 194883 197665 200592
2281.8584 203562 206467 209229 211833 214323 216775 219258 221803 224389
2286.1975 226960 229444 231791 233983 236044 238024 239974 241920 243847
2290.5366 245700 247409 248923 250238 251401 252497 253604 254757 255927
2294.8757 257045 258041 258888 259614 260277 260905 261470 261897 262122
2299.2146 262143 262040 261934 261914 261994 262109 262155 262040 261698
2303.5537 261082 260146 258843 257163 255151 252914 250578 248241 245935
2307.8928 243637 241308 238937 236556 234224 231991 229892 227960 226251
2312.2319 224849 223839 223242 222961 222774 222379 221483 219891 217553
2316.5708 214555 211059 207239 203237 199164 195132 191279 187771 184753
2320.9099 182317 180485 179266 178712 178938 180040 181949 184311 186502
2325.2490 187810 187704 186038 183066 179278 175163 171058 167141 163516
2329.5881 160295 157589 155457 153886 152828 152266 152190 152488 152834
2333.9270 152722 151686 149604 146850 144150 142201 141280 141107 141044
2338.2661 140481 139176 137346 135493 134110 133439 133407 133752 134242
2342.6052 134861 135836 137535 140321 144539 150682 159536 172055 188771
2346.9443 208951 230056 248053 258687 259184 249464 232141 211322 190875
2351.2832 173137 158612 146593 136093 126492 117659 109705 102708 96609 91290
2356.1045 86665 82712 79431 76795 74745 73220 72167 71537 71264 71267 71463
2361.4077 71803 72284 72944 73844 75041 76572 78446 80653 83178 86008 89137
2366.7109 92561 96273 100278 104598 109277 114364 119893 125861 132236 138978
2371.5322 146071 153518 161340 169546 178128 187068 196348 205964 215914
2375.8713 226188 236748 247533 258468 269489 280551 291633 302720 313783
2380.2102 324755 335527 345953 355875 365147 373649 381293 388022 393804
2384.5493 398641 402572 405675 408052 409804 410999 411672 411840 411532
2388.8884 410819 409807 408608 407310 405955 404552 403099 401597 400058
2393.2275 398491 396900 395281 393635 391976 390328 388713 387139 385597
2397.5664 384068 382531 380976 379403 377819 376231 374641 373047 371443
2401.9055 369827 368194 366540 364862 363160 361449 359764 358154 356667
2406.2446 355333 354147 353082 352105 351198 350366 349623 348972 348398
2410.5837 347855 347287 346642 345879 344986 343979 342900 341813 340784
2414.9226 339857 339039 338304 337606 336908 336193 335458 334706 333926
2419.2617 333097 332206 331264 330311 329403 328586 327872 327241 326651
2423.6008 326065 325461 324834 324182 323501 322786 322049 321327 320667
2427.9399 320110 319658 319268 318872 318407 317850 317218 316557 315920
2432.2788 315346 314858 314463 314142 313862 313572 313231 312821 312356
2436.6179 311871 311404 310978 310601 310274 310006 309807 309683 309620
2440.9570 309592 309567 309523 309451 309347 309213 309053 308883 308734
2445.2961 308637 308614 308666 308771 308900 309029 309148 309254 309348
2449.6350 309424 309483 309532 309592 309688 309840 310057 310336 310661
2453.9741 311013 311369 311711 312023 312297 312523 312693 312798 312836
2458.3132 312813 312748 312664 312573 312465 312318 312116 311867 311613
2462.6523 311410 311304 311302 311367 311435 311439 311333 311104 310767
2466.9912 310359 309930 309530 309198 308946 308756 308583 308377 308103
2471.3303 307752 307340 306897 306453 306029 305642 305301 305012 304770
2475.6694 304556 304343 304106 303837 303549 303270 303018 302792 302571
2480.0085 302329 302054 301760 301471 301205 300951 300681 300365 300003
2484.3474 299630 299304 299069 298935 298870 298819 298731 298583 298379
2488.6865 298143 297904 297687 297507 297369 297264 297170 297057 296898
2493.0256 296682 296422 296153 295916 295743 295646 295614 295614 295612
2497.3647 295579 295506 295403 295293 295195 295115 295040 294952 294833
2501.7036 294680 294501 294310 294117 293931 293762 293616 293495 293379
2506.0427 293239 293049 292810 292559 292347 292213 292150 292111 292036
2510.3818 291888 291672 291427 291202 291030 290924 290877 290878 290913
2514.7209 290962 291001 291000 290939 290814 290643 290461 290312 290228
2519.0598 290214 290243 290264 290231 290124 289968 289815 289718 289697
2523.3989 289728 289761 289749 289677 289569 289468 289415 289418 289454
2527.7380 289479 289450 289356 289220 289095 289034 289072 289207 289405
2532.0771 289618 289800 289922 289975 289969 289933 289901 289909 289979
2536.4160 290109 290276 290443 290578 290664 290708 290730 290759 290818
2540.7551 290920 291057 291210 291354 291472 291571 291678 291827 292041
2545.0942 292316 292620 292913 293165 293371 293554 293743 293960 294205
2549.4333 294462 294707 294925 295120 295309 295511 295742 296003 296290
2553.7722 296600 296932 297281 297631 297954 298224 298432 298594 298757
2558.1113 298971 299275 299678 300165 300706 301266 301820 302345 302828
2562.4504 303265 303659 304021 304363 304693 305014 305330 305654 306013
2566.7896 306436 306948 307548 308211 308897 309568 310207 310816 311411
2571.1284 312006 312599 313182 313745 314295 314852 315444 316093 316802
2575.4675 317556 318328 319094 319838 320562 321276 321995 322734 323495
2579.8066 324271 325053 325833 326614 327410 328241 329113 330016 330923
2584.1458 331799 332622 333390 334126 334864 335646 336504 337457 338506
2588.4849 339631 340795 341956 343076 344142 345165 346174 347201 348267
2592.8237 349371 350503 351644 352783 353920 355062 356225 357427 358684
2597.1628 360004 361381 362795 364217 365620 366994 368341 369673 371005
2601.5020 372347 373701 375074 376479 377931 379443 381010 382612 384223
2605.8411 385824 387420 389028 390669 392350 394055 395756 397430 399077
2610.1799 400723 402411 404176 406035 407976 409965 411966 413950 415910
2614.5190 417860 419824 421827 423884 425989 428117 430236 432319 434366
2618.8582 436403 438474 440614 442831 445095 447359 449592 451802 454043
2623.1973 456388 458882 461519 464237 466953 469607 472192 474750 477340
2627.5361 479999 482723 485468 488184 490842 493454 496061 498713 501451
2631.8752 504293 507236 510252 513305 516353 519367 522338 525286 528251
2636.2144 531271 534374 537558 540805 544083 547365 550628 553861 557069
2640.5535 560272 563499 566779 570123 573514 576920 580310 583678 587045
2644.8923 590442 593889 597376 600876 604359 607817 611263 614723 618211
2649.2314 621721 625229 628708 632148 635559 638961 642373 645794 649202
2653.5706 652560 655836 659018 662121 665178 668218 671244 674229 677128
2657.9097 679897 682518 685003 687380 689672 691880 693980 695935 697706
2662.2485 699264 700592 701686 702556 703227 703739 704134 704444 704675
2666.5876 704814 704836 704726 704490 704152 703742 703291 702823 702359
2670.9268 701917 701507 701124 700745 700335 699871 699353 698819 698321
2675.2659 697907 697589 697342 697113 696848 696519 696131 695718 695318
2679.6047 694950 694599 694221 693765 693200 692529 691791 691040 690328
2683.9438 689681 689097 688559 688040 687522 686992 686447 685893 685343
2688.2830 684812 684310 683838 683383 682926 682451 681953 681438 680918
2692.6221 680406 679913 679447 679009 678596 678192 677781 677344 676881
2696.9609 676402 675927 675468 675018 674553 674051 673505 672934 672369
2701.3000 671835 671338 670859 670371 669853 669303 668732 668156 667583
2705.6392 667017 666459 665920 665415 664963 664568 664218 663882 663526
2709.9783 663125 662673 662177 661656 661124 660590 660065 659563 659101
2714.3171 658691 658327 657982 657623 657222 656769 656263 655705 655089
2718.6563 654417 653719 653055 652497 652087 651806 651571 651281 650877
2722.9954 650383 649889 649502 649278 649182 649104 648910 648504 647862
2727.3345 647038 646127 645227 644405 643689 643071 642528 642034 641574
2731.6733 641133 640697 640245 639760 639241 638709 638205 637773 637431
2736.0125 637166 636932 636677 636365 635985 635550 635078 634578 634048
2740.3516 633489 632911 632337 631791 631279 630781 630254 629664 629009
2744.6907 628332 627702 627183 626796 626504 626237 625934 625576 625194
2749.0295 624834 624520 624224 623878 623415 622814 622117 621409 620776
2753.3687 620260 619843 619462 619045 618544 617955 617313 616674 616087
2757.7078 615579 615142 614745 614344 613907 613423 612906 612390 611906
2762.0469 611471 611073 610684 610273 609827 609355 608885 608441 608035
2766.3857 607660 607300 606939 606565 606163 605715 605204 604625 603987
2770.7249 603316 602643 601998 601409 600909 600533 600300 600194 600147
2775.0640 600052 599801 599323 598623 597775 596897 596099 595448 594949
2779.4031 594555 594202 593840 593448 593034 592613 592197 591783 591360
2783.7419 590919 590450 589949 589422 588892 588409 588023 587761 587589
2788.0811 587421 587155 586737 586193 585607 585063 584583 584117 583587
2792.4202 582947 582222 581480 580783 580144 579539 578955 578426 578037
2796.7593 577862 577904 578068 578188 578103 577724 577064 576218 575314
2801.0981 574459 573714 573084 572537 572023 571503 570966 570427 569914
2805.4373 569437 568987 568538 568079 567632 567247 566963 566768 566595
2809.7764 566342 565931 565350 564658 563944 563287 562716 562220 561765
2814.1155 561328 560900 560477 560052 559607 559124 558597 558040 557480
2818.4543 556945 556451 555995 555561 555130 554690 554238 553781 553327
2822.7935 552877 552422 551956 551473 550981 550495 550035 549615 549236
2827.1326 548882 548519 548112 547636 547093 546509 545925 545368 544842
2831.4717 544330 543808 543267 542712 542151 541577 540964 540291 539562
2835.8105 538830 538177 537684 537380 537224 537114 536922 536543 535930
2840.1497 535098 534110 533046 531973 530926 529906 528887 527827 526695
2844.4888 525491 524258 523083 522068 521287 520741 520355 520005 519580
2848.8279 519031 518390 517737 517149 516662 516262 515908 515562 515208
2853.1667 514851 514505 514180 513876 513582 513283 512964 512634 512331
2857.5059 512118 512062 512188 512452 512737 512901 512837 512522 512026
2861.8450 511472 510978 510605 510346 510142 509923 509639 509281 508871
2866.1841 508443 508016 507579 507098 506535 505879 505161 504451 503834
2870.5229 503382 503131 503073 503163 503329 503488 503555 503465 503186
2874.8621 502723 502115 501417 500677 499931 499198 498497 497850 497277
2879.2012 496794 496390 496033 495676 495279 494822 494318 493803 493320
2883.5403 492900 492551 492255 491975 491668 491297 490844 490317 489750
2887.8792 489186 488662 488191 487754 487310 486813 486228 485540 484755
2892.2183 483909 483065 482308 481719 481341 481151 481056 480927 480649
2896.5574 480168 479504 478725 477907 477103 476331 475585 474853 474138
2900.8965 473459 472857 472379 472055 471877 471785 471681 471464 471070
2905.2354 470494 469782 469000 468208 467440 466713 466026 465364 464693
2909.5745 463965 463140 462217 461244 460299 459446 458697 458002 457279
2913.9136 456466 455552 454587 453644 452792 452063 451453 450927 450441
2918.2527 449950 449418 448830 448194 447542 446915 446347 445850 445412
2922.5916 445012 444629 444252 443881 443516 443150 442776 442394 442034
2926.9307 441749 441611 441671 441930 442324 442737 443039 443137 442996
2931.2698 442649 442170 441645 441154 440750 440464 440296 440222 440204
2935.6089 440200 440186 440159 440133 440115 440098 440049 439926 439695
2939.9478 439352 438933 438511 438172 437985 437965 438057 438153 438133
2944.2869 437920 437511 436968 436385 435828 435316 434806 434232 433534
2948.6260 432694 431758 430825 430022 429458 429175 429118 429154 429122
2952.9651 428909 428492 427935 427343 426796 426321 425898 425501 425128
2957.3040 424803 424545 424338 424131 423874 423565 423270 423094 423117
2961.6431 423332 423636 423872 423904 423674 423224 422667 422131 421722
2965.9822 421488 421424 421482 421601 421728 421845 421954 422064 422152
2970.3213 422159 422011 421675 421200 420719 420394 420340 420554 420907
2974.6602 421195 421227 420914 420299 419535 418809 418258 417923 417756
2978.9993 417672 417610 417555 417526 417520 417489 417342 417004 416470
2983.3384 415812 415144 414538 413981 413383 412652 411774 410849 410047
2987.6775 409512 409274 409247 409283 409277 409216 409163 409176 409236
2992.0164 409237 409048 408599 407947 407254 406720 406489 406598 406962
2996.3555 407423 407805 407966 407835 407418 406779 406020 405243 404523
3000.6946 403885 403304 402725 402102 401436 400789 400262 399954 399915
3005.0337 400123 400482 400841 401027 400891 400363 399493 398450 397439
3009.3726 396591 395893 395216 394447 393618 392927 392627 392831 393411
3013.7117 394059 394479 394571 394465 394397 394522 394816 395128 395318
3018.0508 395367 395363 395395 395447 395394 395099 394539 393848 393245
3022.3899 392897 392814 392858 392842 392660 392331 391973 391701 391566
3026.7288 391537 391513 391344 390828 389756 388013 385712 383255 381229
3031.0679 380156 380220 381169 382468 383604 384356 384834 385306 385947
3035.4070 386705 387349 387652 387542 387130 386622 386193 385923 385795
3039.7461 385756 385759 385788 385843 385920 385994 386027 385985 385865
3044.0850 385705 385547 385377 385082 384472 383381 381806 379991 378378
3048.4241 377430 377407 378223 379471 380608 381218 381189 380712 380107
3052.7632 379585 379104 378431 377344 375865 374327 373232 372963 373560
3057.1023 374675 375758 376345 376273 375725 375075 374654 374557 374598
3061.4412 374420 373702 372356 370594 368826 367451 366665 366405 366467
3065.7803 366690 367073 367739 368781 370114 371472 372528 373070 373095
3070.1194 372766 372286 371787 371299 370796 370255 369689 369136 368628
3074.4585 368178 367775 367384 366945 366385 365652 364757 363798 362934
3078.7974 362310 361986 361907 361950 362014 362091 362261 362617 363173
3083.1365 363815 364338 364547 364357 363824 363109 362387 361777 361322
3087.4756 361023 360882 360919 361144 361515 361911 362176 362178 361870
3091.8147 361288 360488 359474 358186 356579 354736 352933 351567 350979
3096.1536 351255 352156 353214 353950 354082 353605 352731 351752 350907
3100.4927 350332 350065 350088 350358 350811 351368 351924 352358 352546
3104.8318 352406 351945 351283 350625 350185 350085 350305 350702 351080
3109.1709 351272 351188 350819 350228 349529 348841 348232 347663 346992
3113.5098 346074 344897 343672 342747 342396 342604 343040 343257 343014
3117.8489 342466 342061 342200 342890 343667 343863 343055 341377 339486
3122.1880 338185 337962 338728 339913 340818 341006 340499 339688 339066
3126.5271 338966 339436 340301 341317 342296 343131 343715 343881 343419
3130.8660 342211 340379 338334 336645 335787 335905 336747 337814 338624
3135.2051 338941 338826 338534 338323 338324 338521 338815 339103 339314
3139.5442 339407 339352 339136 338776 338330 337883 337512 337253 337092
3143.8833 336983 336873 336723 336513 336243 335920 335556 335164 334754
3148.2222 334334 333921 333545 333254 333105 333140 333364 333725 334126
3152.5613 334452 334607 334541 334261 333824 333306 332781 332298 331880
3156.9004 331524 331217 330941 330680 330428 330183 329950 329737 329550
3161.2395 329389 329255 329146 329067 329019 328998 328985 328944 328838
3165.5784 328642 328354 327997 327611 327238 326911 326648 326452 326315
3169.9175 326221 326156 326102 326034 325915 325717 325448 325159 324925
3174.2566 324769 324594 324179 323284 321832 320039 318397 317466 317590
3178.5957 318699 320337 321896 322921 323288 323166 322822 322411 321914
3182.9346 321223 320301 319278 318406 317928 317945 318370 319001 319624
3187.2737 320108 320416 320570 320603 320534 320380 320173 319964 319805
3191.6128 319719 319689 319666 319591 319409 319060 318473 317582 316371
3195.9519 314937 313512 312411 311907 312108 312891 313959 314973 315696
3200.2908 316067 316170 316154 316141 316180 316265 316358 316434 316490
3204.6299 316549 316635 316744 316811 316700 316237 315312 313974 312490
3208.9690 311271 310701 310920 311712 312564 312915 312439 311226 309734
3213.3081 308545 308078 308410 309296 310341 311189 311630 311604 311153
3217.6470 310390 309502 308737 308340 308456 309055 309940 310851 311592
3221.9861 312106 312455 312735 312981 313146 313129 312852 312317 311616
3226.3252 310888 310248 309740 309336 308976 308631 308328 308128 308069
3230.6643 308140 308301 308545 308927 309519 310317 311167 311794 311951
3235.0032 311574 310852 310132 309719 309715 309974 310226 310244 309977
3239.3423 309562 309224 309151 309376 309736 309918 309571 308492 306770
3243.6814 304837 303334 302847 303631 305479 307830 310032 311625 312473
3248.0205 312714 312599 312349 312091 311855 311586 311150 310370 309132
3252.3594 307516 305853 304631 304247 304784 305948 307234 308212 308735
3256.6985 308943 309083 309300 309560 309732 309741 309658 309652 309860
3261.0376 310283 310775 311139 311243 311083 310775 310470 310279 310231
3265.3767 310284 310376 310460 310518 310547 310549 310537 310561 310686
3269.7156 310937 311214 311273 310830 309751 308203 306633 305543 305201
3274.0547 305488 306006 306371 306477 306528 306840 307557 308535 309453
3278.3938 310063 310363 310563 310888 311384 311893 312185 312145 311866
3282.7329 311579 311507 311741 312213 312761 313209 313420 313317 312892
3287.0718 312212 311413 310653 310039 309579 309193 308788 308340 307938
3291.4109 307742 307897 308455 309355 310448 311548 312476 313097 313346
3295.7500 313260 312975 312680 312543 312634 312909 313242 313500 313591
3300.0891 313485 313199 312781 312310 311890 311640 311652 311955 312492
3304.4280 313125 313661 313893 313646 312849 311593 310150 308909 308238
3308.7671 308320 309059 310105 311013 311443 311309 310799 310265 310051
3313.1062 310334 311059 311986 312816 313329 313465 313328 313104 312965
3317.4453 312987 313144 313346 313508 313585 313575 313483 313294 312975
3321.7842 312507 311925 311339 310891 310698 310789 311091 311467 311789
3326.1233 312001 312124 312225 312356 312526 312705 312861 312996 313137
3330.4624 313301 313455 313511 313363 312946 312264 311379 310362 309272
3334.8015 308181 307225 306622 306618 307352 308742 310464 312063 313145
3339.1404 313532 313315 312766 312196 311831 311762 311956 312306 312676
3343.4795 312936 312997 312830 312474 312011 311528 311082 310693 310364
3347.8186 310115 309995 310067 310364 310859 311450 311997 312374 312513
3352.1577 312411 312093 311578 310871 310000 309060 308222 307676 307536
3356.4966 307775 308228 308678 308955 308983 308776 308386 307887 307371
3360.8357 306949 306708 306644 306616 306392 305782 304773 303571 302516
3365.1748 301908 301867 302312 303051 303909 304806 305734 306698 307653
3369.5139 308509 309167 309574 309724 309646 309374 308940 308393 307815
3373.8528 307316 307002 306918 307020 307184 307256 307138 306833 306453
3378.1919 306160 306088 306279 306664 307095 307399 307423 307074 306329
3382.5310 305248 303978 302732 301750 301239 301302 301892 302812 303772
3386.8701 304499 304844 304844 304668 304483 304302 303923 303036 301456
3391.2090 299337 297227 295863 295801 297090 299168 301088 301960 301371
3395.5481 299580 297369 295656 295070 295703 297149 298776 300052 300758
3399.8872 300993 301005 300997 301027 301045 301000 300920 300900 301011
3404.2263 301222 301398 301384 301108 300642 300159 299837 299764 299891
3408.5652 300078 300171 300086 299839 299532 299287 299186 299245 299417
3412.9043 299625 299791 299859 299801 299623 299359 299045 298658 298065
3417.2434 297019 295266 292709 289560 286356 283791 282452 282576 283981
3421.5825 286185 288638 290918 292816 294287 295347 295992 296203 295988
3425.9214 295445 294759 294150 293769 293629 293603 293504 293197 292681
3430.2605 292079 291568 291279 291246 291414 291686 291976 292229 292420
3434.5996 292544 292609 292624 292590 292505 292385 292275 292231 292243
3438.9387 292170 291725 290583 288588 285937 283216 281232 280651 281624
3443.2776 283561 285238 285251 282667 277595 271332 265947 263415 264731
3447.6167 269467 276025 282421 287171 289775 290637 290576 290301 290146
3451.9558 290115 290084 289959 289720 289386 288986 288558 288158 287834
3456.2949 287594 287394 287177 286912 286596 286201 285627 284715 283351
3460.6338 281607 279814 278479 278066 278747 280261 281982 283182 283367
3464.9729 282516 281084 279786 279251 279742 281075 282747 284202 285080
3469.3120 285341 285216 285033 285011 285133 285149 284728 283660 282028
3473.6511 280221 278787 278190 278593 279788 281299 282597 283301 283268
3477.9900 282514 281074 278896 275904 272191 268221 264830 262954 263191
3482.3291 265463 269009 272729 275676 277377 277825 277248 275888 273990
3486.6682 271936 270321 269792 270716 272911 275684 278178 279813 280515
3491.0073 280613 280521 280428 280212 279555 278179 276032 273370 270721
3495.3462 268745 268005 268728 270658 273108 275230 276351 276171 274707
3499.6853 272060 268230 263175 257104 250751 245355 242260 242340 245602
3504.0244 251220 257932 264494 269919 273443 274441 272543 267953 261723
3508.3635 255630 251567 250731 253104 257547 262465 266598 269478 271356
3512.7024 272761 274064 275296 276268 276793 276813 276372 275519 274264
3517.0415 272663 270933 269480 268718 268752 269110 268763 266546 261809
3521.3806 254955 247474 241381 238296 238659 241532 245074 247419 247483
3525.7197 245306 241856 238482 236344 236068 237687 240806 244842 249229
3530.0586 253540 257541 261165 264446 267375 269744 271075 270751 268353
3534.3977 264076 258924 254475 252252 253005 256340 260929 265190 268017
3538.7368 269150 269022 268263 267209 265708 263269 259395 253890 247002
3543.0759 239359 231784 225070 219807 216330 214786 215271 217914 222801
3547.4148 229734 237946 246007 252076 254499 252509 246681 238859 231562
3551.7539 227093 226775 230581 237278 244960 251740 256370 258563 258909
3556.0930 258395 257758 257040 255659 252967 248917 244309 240393 238076
3560.4321 237334 237277 236771 235094 232088 227748 221703 213150 201409
3564.7712 186713 170651 155917 145485 141667 145454 156297 172287 190658
3569.1101 208499 223528 234615 241805 245853 247602 247617 246266 244011
3573.4492 241540 239551 238393 237919 237730 237549 237391 237346 237273
3577.7883 236762 235515 233783 232395 232208 233378 235102 236112 235579
3582.1274 233652 231136 228515 225145 219360 209542 195429 178706 162471
3586.4663 149979 143483 143819 150649 162861 178672 195551 210397 220320
3590.8054 223725 220998 214223 206037 198410 192146 187305 183980 182670
3595.1445 183933 187693 192898 197874 201115 201929 200541 197771 194619
3599.4836 192042 190864 191655 194576 199314 205233 211583 217564 222183
3603.8225 224189 222368 216187 206273 194293 182202 171479 162954 157268
3608.1616 155299 157869 164751 173840 181503 184210 180507 171926 162177
3612.5007 155186 153283 156539 163297 171185 177892 181513 180740 175165
3616.8398 165580 153958 142962 135164 132357 135225 143343 155383 169421
3621.1787 183349 195341 204231 209623 211728 211070 208214 203560 197129
3625.5178 188372 176256 159855 139386 117129 97466 85661 85766 98668 121342
3630.3391 147785 171219 186578 192207 190128 184855 181321 182808 189746
3634.6780 199862 209552 215731 217241 215156 211940 210049 210742 213662
3639.0171 217251 219655 219625 217049 212953 209053 206995 207557 210079
3643.3562 212396 211451 204456 190207 169888 146866 125399 108837 98260 92358
3648.1772 88651 85324 82547 82478 87991 100954 121060 145733 170918 192176
3652.9985 205671 208990 201913 186960 169222 155034 149698 155262 169650
3657.3376 187771 204058 214977 220118 221478 221700 222522 224279 226381
3661.6765 228115 229117 229392 229129 228574 227940 227228 225936 222912
3666.0156 216639 205918 190561 171628 151135 131517 115286 104918 102619
3670.3547 109569 124796 144392 161982 170698 165966 147729 120895 93686 74590
3675.1758 69258 78609 98833 123195 144852 159489 166649 169232 171505 176751
3679.9971 185793 197027 207665 215271 218737 218439 215794 212589 210219
3684.3362 208920 207290 202581 192045 174802 153061 131612 115579 107775
3688.6750 107428 111207 115771 120005 125371 134260 147730 164321 180718
3693.0142 193617 201400 204582 204997 204526 204288 204598 205434 206796
3697.3533 208650 210530 211230 209010 202401 191276 177542 164885 157439
3701.6924 157913 166170 179139 192249 201644 205923 206328 205341 204622
3706.0313 203723 200460 192663 180028 164674 149951 138362 130147 123653
3710.3704 117226 111151 108072 111410 122888 140993 161550 179994 193690
3714.7095 202665 208439 212111 213346 211031 204918 196702 189439 185601
3719.0486 185246 185783 183682 176983 166847 157023 151537 152172 157352
3723.3875 163147 165648 163204 157183 151003 148196 150746 158490 169559
3727.7266 181233 190638 195151 192842 183172 167666 149883 134212 123853
3732.0657 119127 117371 114674 108446 99124 89881 84631 85812 93400 105557
3736.8867 120013 134965 149028 160789 168885 172759 173331 172571 171892
3741.2258 170504 165291 152798 132202 107198 85200 74042 78016 95541 119728
3746.0471 141444 153199 152001 140012 122972 107275 97113 93040 92592 92599
3750.8682 91783 91991 97173 110617 132214 157643 180203 194275 198252 195044
3755.6895 189865 186795 186445 186228 182945 175768 167454 162944 166334
3760.0283 178344 195930 214098 228465 236822 238973 235582 227391 215536
3764.3674 202433 191950 188073 192564 203253 214424 219495 214575 200784
3768.7065 183898 171499 169267 178478 195913 215941 233362 245413 252080
3773.0457 255026 256135 256624 256953 257115 256741 254939 250258 241289
3777.3845 227807 211738 197061 188364 188744 198249 213784 230473 243630
3781.7236 250304 249873 243754 234687 225904 220297 219650 224127 232285
3786.0627 241727 250109 256009 259230 260516 260932 261313 261996 262860
3790.4019 263578 263920 263931 263848 263706 262845 259748 252539 240093
3794.7407 223198 204971 190040 182679 184726 194359 206394 214123 211964
3799.0798 197809 174063 146906 124067 112096 114264 129824 154607 182391
3803.4189 206422 220862 222224 210671 190601 169720 156422 156412 170307
3807.7581 193629 219234 240703 254754 261600 263594 263434 262945 262665
3812.0969 261797 258301 249399 232842 208707 180641 155374 140214 139644
3816.4360 152884 173841 193506 203547 199414 181755 155878 129744 111300
3820.7751 106025 115404 136782 164563 192217 214257 227503 231397 227600
3825.1143 219256 210206 204185 203968 210514 222382 235788 245631 247416
3829.4531 239431 224037 207019 194902 191483 195700 202385 205604 202352
3833.7922 194006 184554 177128 171659 165502 156317 144638 133891 127941
3838.1313 128362 133739 141367 149592 158602 169124 180511 190294 195828
3842.4705 196674 195566 196992 204361 217854 234392 249534 259799 263965
3846.8093 262876 258308 251798 243991 234586 222678 207298 187952 164997
3851.1484 139787 114598 92447 76776 70824 76581 93623 118574 145906 170063
3855.9697 187891 199889 209344 219770 232243 244413 251866 250996 241489
3860.3086 226808 212312 202199 197198 194487 189928 181217 169953 161220
3864.6477 160799 171591 191353 213093 227954 229093 214662 188633 159308
3868.9868 136283 127032 134202 154568 180134 201280 210845 207349 195569
3873.3259 184011 180524 188550 206071 227528 247067 260858 267316 265916
3877.6648 256301 238780 215692 192049 174282 167513 173063 187842 205893
3882.0039 220946 228477 226572 215906 199463 182103 169598 166901 176171
3886.3430 195647 220138 242937 258124 262199 254664 237830 216230 195685
3890.6821 181853 178435 185776 200758 218315 233824 245014 252288 257385
3895.0210 261387 263481 261286 252536 236993 217276 197984 183536 176024
3899.3601 174381 175360 175610 173484 169466 165196 162047 160428 160202
3903.6992 161646 165907 174469 187990 205478 224456 242011 255976 265550
3908.0383 271145 273821 274739 274857 274793 274783 274737 274467 273967
3912.3772 273466 273061 272165 269298 262707 251655 237537 223840 214642
3916.7163 212393 216438 223373 229129 231457 231136 231118 234224 240989
3921.0554 249088 254653 254516 248000 237279 226318 219151 218350 224219
3925.3945 234842 246839 256575 261474 260906 256219 249834 243877 239146
3929.7334 235060 230566 225337 220402 217738 219132 225068 234389 244877
3934.0725 254331 261435 265960 268356 269182 268822 267608 266086 265025
3938.4116 265011 265867 266381 264713 259389 250360 239447 229816 224669
3942.7507 225791 232706 242848 252650 259004 260413 257322 251576 245364
3947.0896 240254 236799 234829 234077 234627 236838 240856 246173 251650
3951.4287 256068 258800 260108 260833 261732 262971 264106 264529 263977
3955.7678 262734 261446 260732 260879 261743 262849 263554 263271 261702
3960.1069 259059 256106 253919 253407 254848 257735 261053 263829 265592
3964.4458 266468 266892 267189 267317 266962 265853 264077 262131 260679
3968.7849 260158 260513 261214 261577 261163 260015 258580 257392 256739
3973.1240 256537 256486 256368 256247 256435 257250 258756 260667 262492
3977.4631 263787 264360 264300 263844 263213 262523 261822 261173 260707
3981.8020 260579 260865 261494 262263 262936 263368 263565 263650 263757
3986.1411 263927 264058 263941 263359 262210 260589 258804 257296 256483
3990.4802 256582 257485 258767 259840 260203 259674 258483 257165 256314
3994.8193 256308 257155 258528 259953 261040 261625 261778 261691 261540
3999.1582 261408 261281 261113
##END= 
