##TITLE= BKG
##JCAMP-DX= 4.24
##DATA TYPE= INFRARED SPECTRUM
##ORIGIN= JASCO
##OWNER= 
##DATE= 22/03/30
##TIME= 18:10:56
##SPECTROMETER/DATA SYSTEM= 
##RESOLUTION= 
##DELTAX=   0.48211674
##XUNITS= 1/CM
##YUNITS= ARBITRARY UNITS
##XFACTOR= 1.00000
##YFACTOR= 1E-005
##FIRSTX=   599.7532
##LASTX=  4000.1226
##NPOINTS=     7054
##FIRSTY=      1.22752
##MAXY=     10.47607
##MINY=      0.27501
##XYDATA= (X++(Y..Y))
599.7532 122752 123442 124903 126797 128599 129861 130419 130445 130308 130352
604.5744 130739 131412 132187 132874 133366 133667 133860 134061 134363 134800
609.3956 135337 135888 136365 136713 136931 137067 137198 137402 137721 138124
614.2167 138458 138463 137863 136544 134710 132913 131875 132168 133916 136699
619.0379 139741 142282 143915 144715 145083 145437 145946 146454 146633 146227
623.8591 145261 144066 143143 142929 143596 144987 146697 148263 149363 149923
628.6802 150091 150102 150131 150211 150262 150198 150010 149773 149580 149454
633.5014 149327 149100 148743 148352 148110 148176 148580 149188 149772 150126
638.3226 150173 149988 149737 149572 149550 149618 149662 149583 149352 149009
643.1437 148625 148252 147905 147565 147187 146698 146000 144991 143634 142026
647.9649 140417 139147 138508 138607 139313 140306 141218 141779 141915 141747
652.7861 141519 141474 141756 142374 143230 144199 145183 146118 146953 147629
657.6072 148114 148435 148700 149059 149644 150532 151737 153208 154816 156379
662.4284 157788 159179 160953 163425 166116 167160 163459 151959 131617 104948
667.2496 77951 58080 51108 58584 77286 100938 123107 139665 149636 154391
672.0707 156069 156308 155852 154883 153528 152095 150945 150253 149911 149656
676.8919 149316 148951 148805 149116 149917 150985 151976 152661 153097 153611
681.7131 154582 156160 158112 159919 161066 161354 161008 160534 160395 160746
686.5342 161394 161985 162287 162353 162489 163043 164200 165900 167910 169973
691.3554 171904 173595 174967 175964 176617 177123 177829 179076 180976 183261
696.1766 185363 186698 187001 186507 185836 185654 186305 187643 189144 190227
700.9977 190575 190275 189726 189393 189571 190286 191345 192495 193557 194490
705.8189 195358 196248 197214 198248 199309 200346 201325 202220 203023 203742
710.6401 204414 205089 205812 206582 207333 207953 208326 208394 208193 207868
715.4612 207629 207657 207975 208337 208243 207127 204687 201180 197479 194772
720.2824 194030 195514 198637 202264 205285 207111 207815 207914 207957 208229
725.1036 208701 209190 209561 209820 210070 210393 210778 211128 211326 211311
729.9247 211106 210798 210478 210199 209946 209661 209277 208752 208072 207225
734.7459 206180 204885 203304 201461 199443 197359 195256 193072 190647 187815
739.5671 184504 180800 176913 173075 169427 165963 162555 159051 155369 151545
744.3882 147708 144013 140566 137398 134475 131747 129201 126884 124901 123379
749.2094 122410 122016 122150 122743 123767 125253 127236 129665 132344 134976
754.0306 137308 139251 140892 142357 143631 144528 144851 144667 144435 144847
758.8517 146406 149014 151883 153868 154047 152196 148877 145112 141889 139784
763.6729 138887 138975 139762 141063 142821 145059 147815 151121 154987 159394
768.4941 164284 169558 175097 180774 186471 192075 197493 202668 207595 212307
773.3152 216839 221172 225230 228909 232137 234915 237300 239369 241171 242728
778.1364 244057 245201 246231 247217 248195 249152 250035 250784 251350 251720
782.9576 251918 252008 252065 252157 252310 252506 252701 252861 252986 253106
787.7787 253256 253449 253667 253868 254005 254038 253936 253689 253319 252890
792.5999 252498 252236 252161 252277 252551 252939 253402 253893 254352 254705
797.4211 254903 254954 254938 254965 255115 255384 255687 255904 255950 255830
802.2422 255637 255516 255594 255927 256473 257118 257728 258218 258576 258856
807.0634 259123 259412 259710 259982 260221 260464 260770 261173 261643 262099
811.8846 262461 262707 262895 263125 263481 263982 264577 265183 265733 266195
816.7057 266576 266894 267169 267419 267673 267967 268333 268783 269304 269861
821.5269 270423 270967 271487 271982 272453 272904 273342 273785 274248 274738
826.3481 275246 275742 276191 276570 276886 277188 277559 278087 278817 279728
831.1693 280723 281665 282438 282990 283354 283621 283897 284256 284724 285275
835.9904 285854 286399 286864 287231 287517 287756 287990 288258 288588 289004
840.8116 289524 290148 290841 291532 292145 292639 293043 293450 293967 294641
845.6328 295429 296209 296851 297293 297578 297824 298158 298650 299280 299960
850.4539 300587 301104 301524 301915 302359 302913 303582 304332 305117 305912
855.2751 306723 307575 308485 309445 310416 311338 312156 312837 313384 313839
860.0963 314274 314771 315394 316165 317061 318031 319023 320007 320986 321971
864.9174 322972 323991 325030 326101 327225 328410 329628 330812 331885 332799
869.7386 333568 334274 335028 335928 337020 338291 339679 341101 342478 343750
874.5598 344890 345909 346858 347818 348880 350114 351542 353136 354824 356520
879.3809 358149 359667 361059 362336 363529 364683 365852 367091 368435 369889
884.2021 371419 372967 374465 375859 377121 378256 379305 380334 381414 382609
889.0233 383950 385430 387008 388622 390207 391704 393077 394314 395436 396480
893.8444 397481 398450 399368 400213 400993 401776 402667 403762 405084 406564
898.6656 408072 409487 410764 411944 413117 414363 415707 417108 418487 419761
903.4868 420872 421798 422561 423228 423898 424674 425624 426752 428000 429278
908.3079 430509 431661 432746 433797 434835 435859 436856 437823 438772 439728
913.1291 440716 441745 442806 443882 444945 445960 446886 447693 448377 448975
917.9503 449566 450234 451030 451947 452919 453859 454710 455472 456204 456986
922.7714 457873 458858 459868 460800 461564 462126 462522 462839 463173 463586
927.5926 464087 464635 465176 465668 466102 466496 466879 467277 467711 468192
932.4138 468728 469306 469886 470404 470801 471058 471216 471367 471597 471945
937.2349 472372 472794 473127 473342 473464 473546 473621 473686 473714 473686
942.0561 473618 473557 473553 473625 473747 473860 473902 473844 473704 473543
946.8773 473437 473436 473540 473692 473811 473834 473746 473590 473439 473361
951.6984 473381 473481 473609 473704 473724 473657 473516 473338 473157 472999
956.5196 472869 472764 472684 472639 472638 472672 472715 472728 472694 472635
961.3408 472601 472640 472758 472914 473049 473125 473159 473208 473340 473599
966.1619 473991 474491 475052 475617 476125 476527 476812 477016 477219 477512
970.9831 477943 478503 479125 479730 480274 480773 481289 481898 482644 483512
975.8043 484430 485297 486032 486608 487071 487517 488050 488743 489615 490632
980.6254 491741 492891 494047 495187 496290 497334 498305 499209 500082 500985
985.4466 501983 503115 504375 505712 507054 508350 509585 510785 511988 513211
990.2678 514439 515636 516774 517852 518889 519907 520900 521849 522737 523582
995.0889 524439 525378 526436 527592 528761 529832 530716 531386 531885 532309
999.9101 532763 533321 534006 534789 535619 536448 537250 538016 538735 539383
1004.7313 539923 540333 540623 540842 541051 541289 541549 541782 541928
1009.0703 541955 541880 541759 541649 541569 541486 541332 541059 540673
1013.4094 540249 539894 539683 539610 539581 539461 539152 538645 538031
1017.7484 537448 537014 536772 536678 536640 536561 536385 536104 535758
1022.0875 535400 535071 534783 534515 534223 533869 533447 532982 532526
1026.4265 532125 531801 531543 531320 531100 530862 530598 530303 529965
1030.7656 529566 529087 528520 527883 527218 526585 526043 525629 525339
1035.1046 525131 524938 524699 524385 524007 523601 523202 522821 522437
1039.4437 522014 521521 520952 520327 519679 519041 518435 517869 517338
1043.7827 516829 516323 515802 515249 514662 514050 513431 512817 512207
1048.1218 511585 510936 510256 509566 508896 508274 507708 507181 506667
1052.4608 506145 505609 505065 504519 503971 503415 502847 502272 501702
1056.7999 501144 500587 500001 499353 498629 497843 497038 496264 495556
1061.1389 494920 494335 493771 493204 492625 492036 491443 490854 490280
1065.4780 489737 489245 488816 488445 488110 487785 487455 487123 486807
1069.8170 486519 486253 485976 485650 485240 484731 484134 483480 482821
1074.1561 482219 481748 481473 481427 481598 481917 482286 482606 482816
1078.4951 482904 482915 482924 483023 483289 483768 484457 485299 486199
1082.8342 487053 487794 488412 488953 489485 490061 490688 491333 491952
1087.1732 492515 493020 493486 493935 494381 494830 495290 495771 496284
1091.5123 496832 497408 497999 498595 499190 499782 500366 500941 501510
1095.8513 502087 502695 503349 504048 504772 505487 506165 506799 507410
1100.1904 508038 508733 509534 510452 511460 512505 513518 514450 515287
1104.5294 516054 516810 517613 518508 519511 520607 521758 522909 524013
1108.8685 525040 525995 526909 527817 528735 529651 530538 531386 532221
1113.2075 533102 534082 535174 536335 537495 538603 539660 540713 541822
1117.5466 543007 544234 545440 546578 547664 548768 549982 551357 552867
1121.8856 554420 555900 557224 558372 559387 560347 561338 562425 563639
1126.2247 564968 566356 567721 568987 570126 571174 572221 573362 574648
1130.5637 576062 577528 578950 580244 581352 582246 582926 583430 583840
1134.9028 584269 584824 585560 586461 587449 588424 589300 590015 590533
1139.2418 590827 590891 590756 590510 590288 590233 590457 591000 591826
1143.5809 592839 593928 595003 596032 597045 598113 599304 600648 602118
1147.9199 603653 605200 606754 608364 610104 612038 614191 616551 619082
1152.2590 621742 624481 627241 629967 632624 635210 637757 640302 642850
1156.5980 645369 647796 650075 652186 654150 656020 657851 659686 661551
1160.9371 663443 665339 667191 668950 670588 672133 673670 675311 677142
1165.2761 679163 681289 683381 685317 687050 688612 690082 691539 693031
1169.6152 694582 696201 697872 699522 701011 702168 702890 703245 703489
1173.9542 703968 704936 706407 708129 709698 710744 711077 710724 709872
1178.2933 708802 707854 707426 707933 709712 712874 717223 722292 727501
1182.6323 732356 736554 739976 742601 744449 745599 746247 746730 747434
1186.9714 748637 750380 752463 754577 756479 758101 759535 760933 762391
1191.3104 763917 765458 766969 768462 770004 771677 773531 775532 777566
1195.6495 779471 781127 782527 783816 785232 786990 789170 791682 794324
1199.9885 796899 799307 801553 803696 805782 807814 809770 811646 813477
1204.3276 815329 817263 819304 821426 823572 825686 827741 829743 831698
1208.6666 833555 835175 836379 837057 837297 837425 837900 839110 841175
1213.0057 843887 846834 849602 851954 853866 855428 856731 857816 858713
1217.3447 859522 860430 861635 863228 865135 867155 869083 870814 872351
1221.6838 873706 874808 875497 875646 875331 874897 874856 875644 877392
1226.0228 879856 882550 884995 886927 888349 889445 890426 891424 892474
1230.3619 893552 894626 895678 896701 897688 898632 899531 900390 901224
1234.7009 902051 902894 903774 904711 905708 906752 907809 908846 909843
1239.0400 910815 911800 912823 913846 914741 915325 915461 915175 914716
1243.3790 914490 914891 916098 917966 920076 921919 923109 923514 923239
1247.7181 922500 921464 920173 918557 916523 914033 911111 907803 904113
1252.0571 899995 895393 890298 884746 878787 872437 865712 858693 851569
1256.3962 844547 837674 830708 823212 814894 806022 797596 791118 787989
1260.7352 788884 793448 800506 808666 816939 825011 832973 840676 847177
1265.0743 850775 849847 844155 835797 828980 828352 836584 852562 871391
1269.4133 886451 892447 887779 874924 858776 844074 833444 826975 823190
1273.7524 820495 818155 816409 815965 817408 820892 826167 832780 840260
1278.0914 848247 856558 865212 874384 884270 894904 906039 917164 927701
1282.4305 937279 945896 953851 961414 968457 974313 978064 979154 977954
1286.7695 975848 974690 975904 979789 985468 991500 996718 1000740 1003902
1291.1086 1006776 1009690 1012586 1015176 1017179 1018410 1018737 1018075
1294.9656 1016507 1014464 1012722 1012118 1013120 1015540 1018623 1021458
1298.8225 1023420 1024385 1024619 1024505 1024321 1024179 1024074 1023936
1302.6794 1023670 1023188 1022479 1021657 1020904 1020297 1019672 1018661
1306.5364 1016983 1014808 1012906 1012369 1013970 1017479 1021383 1023257
1310.3933 1020745 1012741 1000176 985961 973954 967372 967402 972728 980226
1314.7323 986432 988920 986900 980899 972018 961464 950646 941513 936518
1319.0714 937875 946404 960778 977784 993604 1005395 1012270 1015208 1016098
1323.4104 1016613 1017540 1018796 1019889 1020433 1020395 1020024 1019605
1327.2673 1019230 1018764 1018015 1016968 1015889 1015164 1014994 1015200
1331.1243 1015391 1015383 1015485 1016230 1017604 1018343 1016047 1008320
1334.9812 994269 975201 953785 932099 910059 885660 857274 826531 799599
1339.3203 785436 791596 819953 865003 915907 961153 993160 1010403 1016335
1343.6593 1016349 1014896 1014192 1014551 1015366 1015794 1014950 1012065
1347.5162 1006913 1000307 994080 990327 990337 993974 999884 1006198 1011097
1351.8553 1012988 1010617 1003573 993007 981826 973721 971335 974811 981831
1356.1943 989161 994467 997047 997088 994366 987557 974616 953695 923901
1360.5334 885802 842091 798395 763353 746795 755971 791595 846267 906710
1364.8724 958810 992673 1005090 998851 980267 956791 935574 922551 921371
1369.2115 932199 951166 971119 983570 981071 959332 918779 865396 810307
1373.5505 767370 748755 760006 797143 847859 896683 931533 948156 950296
1377.8896 946067 943118 945401 952765 962683 972352 979908 984593 986544
1382.2286 986684 986486 987022 987273 982811 966538 932273 879832 818377
1386.5677 764941 737642 746796 789162 849219 907075 948271 969463 976693
1390.9067 978003 975825 964499 934559 880806 808721 734827 680349 661367
1395.2458 680652 725553 773342 801684 799221 770908 735231 714690 724711
1399.5848 766932 830069 896811 951815 986151 996982 985027 953304 908277
1403.9240 861248 826811 817524 837617 880203 930439 972892 998450 1006721
1408.2629 1003343 995032 986002 977530 969744 963477 960663 963300 971929
1412.6021 984645 997123 1003767 999697 982758 954268 917624 875279 826353
1416.9410 767422 697079 621658 557513 526582 546155 618195 724879 834014
1421.2802 912356 940131 919211 870863 824661 804646 819826 863101 917779
1425.6191 966833 999382 1011698 1004233 978651 937877 888598 842636 814008
1429.9583 812172 836014 873697 909460 932857 943400 946784 945741 933474
1434.2972 896258 824693 725617 625018 558076 551647 610102 713357 827819
1438.6364 922875 983069 1010220 1016729 1016062 1016274 1018903 1021736
1442.4933 1022442 1020710 1018138 1016308 1014282 1007217 987684 950016 895760
1446.8323 836492 790899 776350 799321 850684 909436 953138 968955 958837
1451.1714 936172 916550 908345 908239 903352 878088 821830 733998 624680
1455.5104 511173 412418 343866 314657 327368 379162 462902 567807 680512
1459.8495 787377 877527 944685 986257 1000459 984594 937213 863527 779588
1464.1885 710203 679553 699366 762376 845951 923914 978965 1007998 1017855
1468.5276 1015723 1001415 966692 901622 803570 683205 563853 473960 435742
1472.8666 455156 518361 597341 662819 698173 706735 708170 725998 773668
1477.2057 847231 928172 993709 1027979 1028232 1004037 971467 945993 937250
1481.5447 947117 970955 1000698 1027933 1045519 1047607 1029494 988910 928666
1485.8838 858172 790940 737973 701075 671733 637924 594873 551790 528743
1490.2228 545125 607585 705617 816849 917023 987524 1017361 1002178 944516
1494.5619 855978 757506 673817 623144 608906 620012 640299 660157 681471
1498.9009 712542 757998 812575 863873 901186 922349 932513 935948 928105
1503.2400 895182 822495 706025 558931 408308 284165 207439 183850 205923
1507.5790 260180 333948 417878 504279 584677 650008 694034 717281 727851
1511.9181 737537 755074 780499 804014 810146 785294 725272 639550 549975
1516.2571 483569 461459 488455 548669 610587 640362 617306 543795 444507
1520.5962 355447 308345 317800 376614 460631 540232 593032 612039 605813
1524.9352 591220 583344 588629 604879 626913 652777 685479 729160 783099
1529.2743 838481 880437 893965 870100 809500 722791 628434 548778 504542
1533.6133 508566 560890 647569 744178 822627 858614 837583 758379 634252
1537.9524 490394 357196 260440 212425 209036 234830 272998 313521 354445
1542.2914 396777 438666 474644 500814 521099 548171 596727 673056 768122
1546.6305 859262 919925 932006 894385 823980 749473 700503 696131 736570
1550.9695 801754 858709 876048 839520 760297 670194 605081 585203 603842
1555.3086 631208 631207 580961 481798 356634 237389 151371 114093 129941
1559.6476 196426 306723 448689 602987 744501 848686 900386 900212 864682
1563.9867 819836 791255 794626 830100 882074 924608 931360 887198 796889
1568.3257 686059 592292 549374 572294 651201 757744 859761 935135 976697
1572.6648 986847 968047 917949 833532 720710 600694 506176 467875 499443
1577.0038 590406 711620 829528 920416 976995 1005542 1017692 1023012 1026098
1581.3429 1027900 1028439 1028363 1028745 1030157 1032270 1034288 1035668
1585.1998 1036444 1036957 1037354 1037296 1036060 1032925 1027589 1020448
1589.0568 1012653 1005885 1001830 1001398 1004009 1007380 1008186 1003528
1592.9137 992578 977432 962523 952723 951164 958016 970846 986141 1000863
1597.2528 1013121 1021904 1026540 1026584 1022126 1013995 1003421 991435
1601.1097 978700 966152 955843 950873 953827 964548 979021 990698 993790
1605.4487 986409 971313 953720 937869 924990 914117 904832 899340 901769
1609.7878 914959 937290 962421 982658 993564 995989 993332 985683 965701
1614.1268 920740 841563 732557 615941 525319 490782 523886 611726 723817
1618.4659 827346 901167 940464 950957 938854 904984 847427 769736 687159
1622.8049 624492 605356 639130 713952 800665 865983 887793 864625 814861
1627.1440 766852 745396 761205 807932 867412 919789 953011 966626 968063
1631.4830 964037 952937 923684 862543 763889 637863 509414 408690 358267
1635.8221 364568 417746 498810 588756 674442 749265 810463 856412 886085
1640.1611 900377 903331 901468 900861 903368 904276 893192 858447 793216
1644.5002 700258 592526 489129 408802 364411 360880 396264 463540 551043
1648.8392 641769 713960 745224 719839 635917 508315 365212 239727 160243
1653.1783 143125 189756 287889 416218 550659 670650 763662 826606 864007
1657.5173 884219 895445 902822 906873 903377 885056 845518 784556 712014
1661.8564 646775 609791 614198 658473 727235 799201 856710 890521 897889
1666.1954 877724 828639 752272 658374 565569 494957 460253 461835 489326
1670.5345 530270 577358 628198 678660 717132 726771 696022 629940 552908
1674.8735 498986 495002 546687 636035 730689 799201 823807 805339 759775
1679.2126 709488 673211 658201 657181 651484 619902 550018 446727 333142
1683.5516 242477 204327 231965 316893 433000 547768 634784 681956 692722
1687.8907 681155 664344 655719 661668 681799 711567 745274 777676 803605
1692.2297 816485 807692 768560 695139 593493 481838 386687 333219 333775
1696.5688 380377 445921 494667 497867 447357 360386 272790 223208 235651
1700.9078 308892 417905 526299 602862 633485 623066 588374 547905 515153
1705.2469 497708 499710 523313 567170 623888 680228 721858 740418 738130
1709.5859 726411 718936 723355 736655 746775 739372 705896 648671 580275
1713.9250 517414 472311 446331 429776 408591 374383 331599 296952 290895
1718.2640 326173 400365 496690 591945 666396 710225 724332 716995 699406
1722.6031 682126 672765 674543 685889 701711 716252 725991 730536 730764
1726.9421 725833 712025 685159 645232 599513 560689 539998 539283 547518
1731.2813 545114 514485 451016 367796 290907 247625 254043 308709 394885
1735.6202 488859 568876 620391 637084 620052 577444 524214 479530 460413
1739.9594 473740 511774 555340 583974 587130 569346 546188 534016 540395
1744.2983 560801 582551 592447 583345 556688 520810 486623 462701 451677
1748.6375 449548 448590 442717 432294 425127 432492 462409 514335 578501
1752.9764 639979 684692 704068 696731 667746 626783 585943 557153 549040
1757.3156 563934 596340 633984 661571 666257 642950 597260 544348 503364
1761.6545 489466 507229 549142 600159 645438 676357 691342 692157 679756
1765.9937 653659 615276 571554 534543 515631 517881 532175 540750 526754
1770.3326 484242 422543 362332 325651 325429 360019 415198 471972 515676
1774.6718 541566 554519 563817 576624 593920 610721 619646 615302 597108
1779.0107 569680 541207 520752 515194 526499 550316 577010 595452 598163
1783.3499 585136 563910 545611 539215 547391 566122 587761 605154 614283
1787.6888 614376 606237 590413 566440 533480 491908 444997 399733 365799
1792.0280 352425 364057 397141 440487 479939 505177 514575 514795 515244
1796.3669 521161 530171 534624 527744 508900 484234 462565 449997 447213
1800.7061 450893 457422 465628 476660 491720 509932 528093 542256 549716
1805.0450 550034 544795 536650 528288 521522 516549 511690 504104 491555
1809.3842 474349 456066 442220 437452 443016 456206 472014 485755 494878
1813.7231 499052 498980 495218 487931 477509 465244 453331 444107 439045
1818.0623 438121 439879 442092 442720 440767 436635 431694 427113 422584
1822.4012 415876 403900 384994 361088 338098 323753 323670 337779 359323
1826.7404 377306 381401 366896 337166 302411 275244 265256 275157 300210
1831.0793 331040 358171 375924 383806 385101 383912 382607 381053 377720
1835.4185 371550 363246 355173 350080 349540 353076 358455 362931 364658
1839.7574 363355 359750 354162 345340 330713 308334 279411 249502 226973
1844.0966 219114 228101 249458 274225 293597 303197 304452 302546 302666
1848.4355 307071 314556 322095 327094 328729 327825 325838 323877 322338
1852.7747 321116 319998 318886 317790 316688 315442 313815 311596 308751
1857.1136 305505 302293 299579 297625 296379 295525 294707 293739 292697
1861.4528 291820 291298 291070 290736 289638 287060 282471 275651 266657
1865.7917 255654 242824 228514 213635 200007 190236 186936 191544 203404
1870.1309 219739 236657 250680 259963 264584 265915 265585 264719 263742
1874.4698 262660 261408 260027 258610 257199 255751 254207 252561 250887
1878.8090 249308 247952 246901 246146 245539 244806 243635 241818 239363
1883.1479 236496 233587 231058 229314 228622 228893 229415 228814 225491
1887.4871 218495 208381 197419 188818 185269 187625 194516 203104 210443
1891.8260 214619 215117 212488 207786 202220 197043 193435 192204 193403
1896.1652 196227 199358 201610 202452 202076 201046 199842 198642 197405
1900.5042 196079 194697 193315 191922 190447 188879 187339 186013 184973
1904.8433 184059 182926 181237 178845 175838 172446 168936 165581 162712
1909.1823 160732 160021 160739 162657 165142 167358 168597 168589 167603
1913.5214 166256 165079 164069 162517 159315 153657 145773 137189 130265
1917.8604 127156 128735 134079 140812 146115 147889 145521 139976 133271
1922.1995 127628 124657 124854 127568 131403 134866 136948 137403 136608
1926.5385 135183 133608 132072 130551 128996 127437 125965 124624 123356
1930.8776 122037 120568 118957 117313 115782 114463 113364 112418 111530
1935.2166 110626 109669 108642 107535 106356 105155 104016 102961 101817
1939.5557 100162 97469 93444 88384 83252 79350 77687 78429 80781 83401 85102
1944.8589 85394 84569 83344 82355 81836 81635 81452 81077 80483 79755 78982
1950.1622 78193 77371 76489 75526 74462 73287 72019 70728 69514 68460 67569
1955.4655 66757 65898 64893 63725 62442 61118 59799 58499 57224 56002 54887
1960.7688 53932 53160 52553 52069 51658 51262 50801 50163 49241 47993 46504
1966.0720 44988 43718 42906 42609 42708 42974 43185 43213 43056 42794 42519
1971.3754 42275 42045 41764 41362 40802 40105 39341 38611 38003 37571 37320
1976.6786 37237 37319 37600 38134 38958 40052 41328 42652 43900 44999 45938
1981.9819 46747 47457 48091 48662 49191 49706 50209 50649 50927 50956 50742
1987.2852 50428 50229 50304 50615 50918 50884 50322 49332 48298 47692 47834
1992.5885 48728 50084 51493 52618 53310 53600 53607 53450 53208 52924 52621
1997.8917 52317 52021 51731 51443 51148 50839 50502 50117 49665 49134 48526
2003.1951 47842 47077 46215 45248 44197 43126 42127 41294 40686 40310 40122
2008.4983 40048 40018 39983 39931 39877 39847 39863 39936 40057 40199 40308
2013.8016 40307 40112 39673 39012 38238 37517 37009 36795 36853 37082 37361
2019.1049 37605 37785 37910 37986 38006 37949 37808 37603 37374 37161 36989
2024.4082 36861 36766 36696 36653 36645 36676 36742 36831 36932 37037 37146
2029.7114 37262 37376 37471 37522 37514 37455 37385 37372 37487 37784 38278
2035.0148 38934 39683 40450 41178 41845 42452 43005 43496 43911 44252 44554
2040.3180 44886 45319 45890 46589 47370 48190 49022 49856 50675 51444 52121
2045.6213 52697 53210 53738 54362 55129 56061 57184 58555 60252 62314 64675
2050.9246 67141 69441 71326 72676 73536 74087 74551 75111 75850 76756 77749
2056.2278 78731 79618 80366 80970 81459 81882 82295 82754 83304 83966 84712
2061.5313 85455 86061 86398 86415 86192 85933 85893 86264 87089 88254 89551
2066.8345 90785 91846 92731 93499 94217 94922 95614 96280 96912 97518 98120
2072.1377 98751 99434 100183 100991 101840 102707 103579 104452 105329 106212
2076.9590 107096 107970 108836 109706 110602 111536 112504 113485 114447
2081.2979 115371 116258 117127 117995 118865 119705 120461 121074 121522
2085.6370 121827 122050 122246 122433 122577 122631 122587 122507 122492
2089.9761 122621 122881 123160 123297 123171 122756 122126 121399 120679
2094.3152 120021 119442 118953 118579 118362 118336 118513 118869 119353
2098.6541 119898 120441 120932 121350 121703 122019 122333 122667 123024
2102.9932 123387 123732 124042 124315 124565 124816 125096 125423 125797
2107.3323 126201 126604 126977 127302 127577 127821 128062 128333 128656
2111.6714 129040 129467 129902 130301 130638 130908 131127 131310 131451
2116.0103 131520 131481 131314 131031 130668 130265 129843 129392 128887
2120.3494 128303 127620 126835 125947 124965 123903 122784 121633 120467
2124.6885 119286 118072 116800 115453 114034 112554 111026 109450 107805
2129.0276 106057 104176 102142 99960 97653 95260 92821 90374 87957 85607 83367
2134.3308 81280 79386 77709 76253 75001 73917 72953 72054 71157 70210 69186
2139.6340 68094 66981 65909 64920 64008 63121 62188 61162 60044 58886 57753
2144.9373 56689 55691 54724 53745 52738 51720 50734 49824 49011 48287 47615
2150.2407 46946 46229 45430 44529 43529 42449 41317 40161 39003 37845 36674
2155.5439 35458 34168 32795 31376 30003 28809 27937 27501 27548 28051 28913
2160.8472 29998 31162 32283 33282 34132 34853 35499 36131 36804 37548 38374
2166.1504 39268 40201 41127 41994 42753 43371 43849 44217 44530 44838 45167
2171.4539 45514 45849 46129 46319 46402 46385 46305 46224 46209 46310 46539
2176.7571 46856 47189 47464 47640 47718 47739 47751 47785 47853 47951 48074
2182.0603 48227 48428 48701 49067 49537 50107 50747 51412 52058 52654 53201
2187.3635 53720 54239 54768 55300 55816 56300 56754 57189 57613 58026 58419
2192.6670 58783 59126 59472 59851 60290 60794 61353 61937 62518 63071 63581
2197.9702 64045 64466 64852 65211 65555 65898 66257 66646 67074 67534 68006
2203.2734 68463 68878 69239 69556 69853 70152 70465 70780 71080 71355 71622
2208.5767 71921 72287 72729 73216 73694 74115 74472 74794 75131 75524 75976
2213.8801 76465 76950 77405 77825 78226 78635 79075 79555 80066 80584 81081
2219.1833 81536 81949 82337 82730 83151 83607 84093 84591 85087 85577 86069
2224.4866 86579 87122 87703 88312 88921 89504 90046 90559 91075 91628 92235
2229.7898 92891 93576 94275 94991 95739 96526 97339 98143 98905 99611 100278
2235.0933 100931 101583 102220 102814 103351 103852 104370 104957 105635
2239.4321 106376 107126 107841 108513 109172 109855 110581 111336 112091
2243.7712 112825 113540 114255 114989 115741 116492 117218 117906 118561
2248.1104 119199 119833 120468 121099 121712 122294 122833 123323 123760
2252.4495 124151 124515 124883 125297 125801 126428 127196 128095 129099
2256.7883 130166 131258 132347 133421 134475 135508 136515 137484 138403
2261.1274 139263 140061 140808 141530 142260 143036 143880 144792 145748
2265.4666 146708 147647 148566 149507 150529 151685 152988 154415 155914
2269.8057 157437 158959 160478 162006 163547 165100 166662 168240 169852
2274.1445 171516 173239 175009 176813 178647 180531 182500 184588 186810
2278.4836 189158 191622 194199 196900 199735 202692 205716 208721 211626
2282.8228 214385 217010 219556 222078 224596 227082 229479 231738 233848
2287.1619 235836 237750 239632 241501 243358 245200 247018 248792 250482
2291.5007 252023 253363 254485 255432 256279 257094 257890 258627 259248
2295.8398 259732 260114 260454 260780 261052 261186 261115 260854 260501
2300.1790 260185 259988 259899 259828 259663 259305 258682 257729 256374
2304.5181 254560 252287 249643 246792 243917 241151 238537 236035 233566
2308.8569 231063 228513 225950 223448 221101 219006 217263 215953 215103
2313.1960 214654 214433 214170 213560 212347 210392 207697 204375 200588
2317.5352 196488 192197 187827 183515 179434 175772 172675 170199 168324
2321.8743 167015 166298 166291 167119 168764 170922 173001 174283 174206
2326.2131 172589 169675 165968 161978 158040 154294 150794 147624 144912
2330.5522 142770 141234 140272 139848 139926 140385 140916 141022 140226
2334.8914 138360 135749 133100 131127 130152 129927 129819 129210 127852
2339.2305 125976 124106 122736 122076 122009 122242 122558 122981 123781
2343.5693 125325 127942 131945 137831 146436 158766 175347 195376 216215
2347.9084 233796 243946 244070 234266 217214 196933 177104 159895 145758
2352.2476 134059 123926 114799 106501 99027 92355 86419 81182 76667 72913
2357.0686 69889 67480 65547 64003 62841 62093 61761 61785 62064 62504 63060
2362.3721 63739 64588 65674 67061 68801 70915 73389 76176 79221 82489 85984
2367.6753 89753 93856 98342 103233 108527 114223 120345 126936 134042 141675
2372.4963 149807 158378 167323 176600 186192 196100 206323 216844 227626
2376.8354 238622 249790 261104 272562 284177 295950 307842 319753 331523
2381.1746 342967 353905 364200 373756 382506 390395 397367 403373 408393
2385.5137 412445 415592 417919 419521 420481 420871 420763 420240 419395
2389.8525 418327 417121 415839 414512 413144 411725 410239 408677 407045
2394.1917 405372 403695 402053 400466 398928 397405 395849 394222 392508
2398.5308 390727 388921 387144 385441 383824 382277 380762 379243 377696
2402.8699 376121 374527 372924 371321 369726 368159 366648 365225 363912
2407.2087 362713 361630 360661 359810 359076 358433 357830 357199 356482
2411.5479 355658 354753 353815 352893 352008 351150 350293 349415 348510
2415.8870 347586 346656 345726 344801 343886 342990 342125 341290 340475
2420.2261 339660 338837 338019 337242 336545 335948 335435 334952 334435
2424.5649 333832 333131 332354 331548 330759 330014 329322 328676 328073
2428.9041 327516 327016 326576 326182 325796 325367 324854 324256 323615
2433.2432 322997 322461 322029 321674 321345 320998 320619 320227 319853
2437.5823 319522 319232 318970 318715 318460 318214 317997 317832 317733
2441.9211 317696 317697 317697 317655 317550 317386 317192 317006 316853
2446.2603 316741 316669 316636 316654 316743 316915 317163 317456 317757
2450.5994 318035 318283 318510 318726 318930 319107 319250 319370 319500
2454.9385 319678 319923 320223 320537 320827 321065 321249 321382 321459
2459.2773 321469 321402 321265 321083 320895 320729 320593 320481 320377
2463.6165 320263 320122 319936 319688 319378 319027 318675 318364 318109
2467.9556 317893 317674 317412 317093 316735 316372 316032 315727 315454
2472.2947 315207 314982 314774 314562 314313 313995 313596 313137 312668
2476.6335 312239 311882 311597 311360 311141 310918 310678 310414 310124
2480.9727 309811 309488 309175 308884 308618 308365 308105 307821 307510
2485.3118 307181 306861 306581 306366 306230 306159 306115 306049 305925
2489.6509 305732 305496 305262 305073 304947 304871 304811 304726 304590
2493.9897 304399 304171 303939 303738 303595 303512 303467 303420 303333
2498.3289 303182 302975 302742 302527 302366 302277 302245 302236 302204
2502.6680 302115 301954 301735 301488 301247 301030 300843 300682 300542
2507.0071 300422 300323 300245 300180 300116 300043 299954 299842 299706
2511.3459 299550 299387 299241 299136 299080 299052 299011 298911 298732
2515.6851 298490 298237 298037 297937 297946 298032 298135 298188 298153
2520.0242 298032 297875 297751 297718 297785 297906 298003 298004 297887
2524.3633 297688 297478 297329 297279 297315 297389 297441 297431 297348
2528.7021 297216 297073 296958 296894 296880 296898 296928 296958 296999
2533.0413 297073 297205 297407 297671 297965 298244 298462 298584 298595
2537.3804 298509 298359 298195 298060 297986 297985 298050 298169 298326
2541.7195 298509 298711 298928 299164 299424 299711 300021 300337 300631
2546.0583 300879 301069 301217 301354 301517 301723 301965 302211 302434
2550.3975 302629 302821 303052 303353 303721 304122 304512 304868 305206
2554.7366 305559 305956 306384 306788 307101 307285 307362 307410 307527
2559.0757 307783 308192 308707 309259 309790 310283 310757 311243 311755
2563.4146 312274 312762 313186 313543 313863 314196 314586 315049 315574
2567.7537 316138 316717 317294 317855 318388 318887 319359 319831 320342
2572.0928 320925 321585 322304 323044 323776 324492 325204 325931 326678
2576.4319 327430 328159 328838 329467 330077 330721 331453 332297 333234
2580.7710 334207 335146 336000 336766 337483 338215 339016 339910 340886
2585.1099 341910 342945 343961 344941 345884 346803 347729 348697 349733
2589.4490 350836 351978 353111 354202 355243 356262 357306 358409 359581
2593.7881 360799 362027 363238 364426 365617 366845 368139 369505 370922
2598.1272 372352 373760 375130 376474 377824 379212 380657 382152 383666
2602.4661 385162 386611 388014 389399 390815 392311 393908 395598 397351
2606.8052 399128 400907 402689 404482 406296 408121 409938 411726 413480
2611.1443 415218 416972 418777 420649 422585 424570 426584 428622 430695
2615.4834 432818 435002 437237 439494 441740 443950 446126 448286 450458
2619.8223 452663 454904 457169 459448 461736 464047 466406 468846 471394
2624.1614 474058 476821 479642 482464 485239 487944 490585 493197 495818
2628.5005 498474 501164 503866 506550 509206 511860 514577 517430 520471
2632.8396 523688 527001 530297 533477 536508 539435 542354 545360 548503
2637.1785 551778 555145 558559 561987 565411 568818 572193 575530 578837
2641.5176 582147 585502 588931 592434 595978 599517 603014 606459 609870
2645.8567 613278 616711 620181 623687 627226 630799 634415 638074 641761
2650.1958 645442 649077 652633 656098 659481 662805 666094 669369 672641
2654.5347 675919 679200 682468 685690 688830 691860 694775 697591 700336
2658.8738 703023 705634 708123 710434 712524 714381 716019 717466 718743
2663.2129 719855 720795 721551 722124 722524 722771 722887 722885 722777
2667.5520 722572 722282 721925 721523 721098 720673 720274 719925 719638
2671.8909 719405 719186 718914 718526 717992 717340 716647 716009 715488
2676.2300 715083 714739 714385 713978 713532 713096 712718 712402 712097
2680.5691 711725 711217 710556 709784 708980 708221 707552 706967 706425
2684.9082 705872 705273 704631 703980 703371 702846 702411 702039 701674
2689.2471 701266 700785 700235 699644 699041 698442 697850 697259 696676
2693.5862 696120 695614 695171 694782 694415 694032 693604 693129 692630
2697.9253 692139 691689 691288 690920 690547 690126 689623 689029 688367
2702.2644 687681 687019 686413 685869 685365 684863 684329 683744 683124
2706.6033 682514 681972 681545 681238 681005 680765 680443 680003 679470
2710.9424 678914 678405 677974 677601 677234 676825 676358 675853 675347
2715.2815 674867 674413 673965 673491 672967 672383 671749 671095 670472
2719.6206 669934 669520 669227 669000 668746 668374 667843 667187 666506
2723.9595 665919 665505 665263 665115 664946 664658 664208 663614 662936
2728.2986 662233 661542 660878 660239 659627 659043 658489 657955 657422
2732.6377 656868 656288 655700 655142 654657 654278 654005 653803 653618
2736.9768 653390 653079 652674 652187 651643 651063 650462 649849 649237
2741.3157 648646 648089 647561 647032 646457 645808 645107 644425 643858
2745.6548 643475 643271 643162 643036 642808 642473 642089 641731 641421
2749.9939 641111 640708 640138 639393 638536 637668 636872 636190 635622
2754.3330 635144 634725 634331 633929 633487 632990 632449 631893 631355
2758.6719 630853 630383 629926 629469 629009 628550 628098 627654 627214
2763.0110 626776 626338 625898 625453 624998 624532 624058 623583 623106
2767.3501 622617 622106 621572 621026 620487 619963 619438 618882 618275
2771.6892 617633 617018 616514 616182 616020 615953 615863 615639 615225
2776.0281 614633 613930 613198 612499 611858 611269 610708 610153 609594
2780.3672 609032 608480 607954 607463 607013 606597 606203 605810 605395
2784.7063 604938 604438 603913 603407 602969 602634 602392 602195 601972
2789.0454 601671 601281 600823 600327 599793 599197 598518 597771 597021
2793.3843 596344 595776 595283 594780 594201 593558 592948 592497 592280
2797.7234 592256 592285 592188 591841 591222 590413 589548 588756 588109
2802.0625 587607 587197 586809 586389 585919 585407 584858 584261 583593
2806.4016 582852 582088 581402 580906 580659 580624 580679 580676 580507
2810.7405 580145 579637 579056 578463 577875 577280 576659 576006 575336
2815.0796 574681 574072 573522 573020 572536 572040 571514 570965 570407
2819.4187 569854 569308 568764 568227 567718 567261 566865 566513 566162
2823.7578 565773 565325 564829 564314 563807 563323 562860 562405 561940
2828.0967 561449 560919 560351 559758 559160 558577 558015 557469 556934
2832.4358 556414 555914 555427 554915 554324 553609 552782 551929 551186
2836.7749 550674 550439 550418 550453 550353 549962 549213 548135 546836
2841.1140 545458 544133 542944 541899 540942 539980 538941 537812 536659
2845.4529 535591 534697 533993 533409 532832 532171 531408 530598 529827
2849.7920 529155 528596 528122 527702 527322 526984 526683 526399 526100
2854.1311 525764 525394 525009 524629 524267 523940 523681 523547 523590
2858.4702 523811 524139 524439 524577 524475 524152 523693 523201 522740
2862.8091 522317 521909 521495 521082 520701 520372 520085 519791 519426
2867.1482 518944 518342 517667 516992 516384 515884 515498 515217 515033
2871.4873 514948 514962 515049 515148 515169 515028 514683 514153 513501
2875.8264 512803 512110 511434 510760 510074 509383 508720 508117 507587
2880.1653 507113 506660 506200 505731 505274 504859 504493 504156 503816
2884.5044 503452 503072 502705 502376 502077 501770 501405 500956 500430
2888.8435 499857 499263 498644 497981 497252 496459 495630 494810 494050
2893.1826 493402 492908 492587 492418 492324 492189 491903 491408 490719
2897.5215 489909 489058 488221 487409 486616 485840 485100 484426 483843
2901.8606 483354 482945 482591 482263 481927 481547 481089 480531 479869
2906.1997 479124 478336 477558 476836 476191 475606 475020 474354 473544
2910.5388 472577 471505 470416 469392 468470 467626 466803 465947 465038
2914.8777 464094 463161 462284 461493 460799 460192 459644 459113 458558
2919.2168 457954 457302 456633 455988 455400 454880 454422 454012 453635
2923.5559 453275 452908 452495 452007 451444 450865 450376 450099 450118
2927.8950 450438 450971 451570 452076 452370 452397 452166 451734 451188
2932.2339 450625 450132 449770 449555 449450 449384 449286 449119 448899
2936.5730 448676 448514 448451 448485 448574 448653 448658 448543 448305
2940.9121 447988 447670 447429 447304 447268 447246 447148 446918 446552
2945.2512 446082 445542 444944 444278 443527 442693 441793 440860 439939
2949.5901 439089 438388 437911 437695 437693 437780 437787 437582 437127
2953.9292 436487 435780 435109 434514 433978 433468 432974 432524 432155
2958.2683 431879 431672 431493 431320 431174 431102 431142 431280 431444
2962.6074 431528 431449 431186 430794 430373 430017 429772 429623 429516
2966.9463 429402 429272 429165 429142 429241 429444 429665 429782 429685
2971.2854 429331 428773 428152 427650 427411 427476 427751 428035 428110
2975.6245 427842 427240 426450 425668 425042 424620 424365 424215 424143
2979.9636 424159 424270 424429 424528 424440 424089 423496 422767 422026
2984.3025 421344 420697 419990 419128 418092 416974 415952 415200 414816
2988.6416 414773 414954 415222 415482 415707 415898 416040 416076 415938
2992.9807 415593 415096 414584 414229 414168 414439 414964 415575 416070
2997.3198 416279 416107 415563 414738 413773 412807 411928 411150 410415
3001.6587 409645 408789 407872 406993 406279 405831 405683 405793 406066
3005.9978 406372 406565 406508 406119 405418 404531 403628 402824 402109
3010.3369 401385 400584 399775 399164 398961 399207 399708 400130 400203
3014.6760 399885 399368 398940 398809 399023 399503 400146 400889 401686
3019.0149 402451 403030 403256 403055 402518 401878 401398 401227 401332
3023.3540 401533 401622 401486 401155 400757 400433 400253 400194 400148
3027.6931 399939 399345 398151 396257 393807 391240 389183 388188 388456
3032.0322 389725 391406 392900 393889 394423 394777 395207 395771 396336
3036.3711 396710 396784 396594 396277 395982 395806 395776 395868 396025
3040.7102 396179 396271 396256 396126 395903 395637 395390 395211 395099
3045.0493 394968 394646 393932 392699 391007 389147 387561 386672 386691
3049.3884 387510 388743 389904 390623 390792 390554 390154 389738 389247
3053.7273 388467 387222 385563 383836 382543 382087 382551 383643 384841
3058.0664 385654 385842 385494 384926 384471 384282 384239 384024 383313
3062.4055 381988 380230 378439 377013 376144 375767 375685 375776 376107
3066.7446 376863 378135 379767 381364 382497 382935 382754 382241 381689
3071.0835 381236 380842 380394 379826 379165 378487 377847 377249 376666
3075.4226 376076 375479 374874 374254 373610 372971 372413 372026 371848
3079.7617 371827 371847 371819 371754 371772 372008 372492 373084 373531
3084.1008 373599 373211 372491 371682 371020 370619 370463 370469 370566
3088.4397 370734 370975 371261 371502 371583 371424 371024 370431 369671
3092.7788 368683 367350 365611 363598 361668 360297 359847 360366 361532
3097.1179 362795 363624 363730 363140 362121 361022 360125 359582 359411
3101.4570 359545 359878 360311 360761 361157 361428 361494 361289 360816
3105.7959 360184 359595 359257 359288 359646 360151 360582 360762 360616
3110.1350 360162 359482 358690 357904 357195 356542 355826 354909 353761
3114.4741 352549 351581 351116 351169 351462 351610 351414 351034 350888
3118.8132 351309 352221 353086 353208 352197 350275 348200 346839 346678
3123.1521 347570 348869 349833 350035 349531 348746 348182 348150 348677
3127.4912 349581 350629 351646 352518 353120 353264 352741 351454 349555
3131.8303 347472 345767 344887 344953 345711 346682 347412 347683 347564
3136.1694 347300 347142 347224 347531 347955 348369 348671 348799 348726
3140.5083 348465 348064 347599 347149 346771 346481 346268 346103 345960
3144.8474 345813 345635 345399 345081 344677 344203 343692 343184 342717
3149.1865 342323 342034 341879 341882 342042 342322 342650 342936 343105
3153.5256 343114 342971 342714 342386 342009 341585 341106 340590 340093
3157.8645 339694 339464 339420 339515 339649 339723 339674 339495 339226
3162.2036 338927 338644 338405 338214 338064 337939 337815 337661 337442
3166.5427 337138 336754 336331 335935 335632 335457 335400 335412 335434
3170.8818 335422 335356 335227 335037 334795 334531 334289 334077 333819
3175.2207 333340 332443 331056 329356 327767 326798 326787 327705 329165
3179.5598 330617 331631 332070 332073 331877 331617 331256 330670 329808
3183.8989 328796 327909 327425 327473 327966 328662 329303 329724 329903
3188.2380 329908 329823 329697 329543 329369 329208 329102 329074 329093
3192.5769 329087 328972 328687 328200 327489 326533 325340 323999 322713
3196.9160 321758 321378 321658 322466 323507 324463 325127 325463 325568
3201.2551 325572 325558 325542 325501 325428 325347 325312 325372 325538
3205.5942 325759 325911 325815 325295 324268 322834 321295 320076 319546
3209.9331 319824 320678 321596 322021 321624 320474 319001 317778 317239
3214.2722 317503 318365 319442 320360 320871 320884 320429 319634 318701
3218.6113 317885 317428 317470 317985 318795 319667 320422 321003 321458
3222.9504 321855 322204 322433 322428 322115 321511 320727 319921 319220
3227.2893 318668 318232 317852 317501 317203 317012 316954 317005 317129
3231.6284 317337 317707 318325 319181 320101 320791 320994 320654 319963
3235.9675 319260 318835 318778 318963 319153 319162 318949 318622 318358
3240.3066 318299 318470 318733 318806 318364 317202 315404 313404 311863
3244.6455 311395 312269 314270 316805 319181 320904 321816 322053 321884
3248.9846 321560 321244 320998 320781 320447 319793 318664 317105 315423
3253.3237 314101 313557 313912 314913 316085 317007 317518 317735 317886
3257.6628 318114 318392 318600 318663 318644 318701 318963 319430 319961
3262.0017 320363 320506 320388 320127 319878 319755 319787 319919 320070
3266.3408 320167 320180 320116 320008 319914 319912 320076 320402 320748
3270.6799 320833 320355 319186 317518 315828 314646 314263 314571 315168
3275.0190 315649 315873 316022 316399 317157 318166 319110 319728 319992
3279.3579 320093 320262 320580 320936 321140 321090 320871 320696 320781
3283.6970 321210 321900 322648 323216 323418 323175 322538 321667 320778
3288.0361 320050 319554 319229 318942 318589 318166 317781 317583 317683
3292.3752 318108 318806 319681 320621 321503 322193 322585 322645 322451
3296.7141 322177 322011 322065 322326 322673 322954 323063 322977 322740
3301.0532 322429 322120 321878 321752 321785 321999 322380 322855 323280
3305.3923 323459 323200 322407 321160 319737 318532 317907 318019 318743
3309.7314 319718 320516 320833 320618 320083 319577 319427 319790 320599
3314.0703 321617 322553 323186 323450 323428 323290 323194 323223 323363
3318.4094 323541 323675 323714 323642 323460 323161 322740 322208 321619
3322.7485 321072 320682 320527 320614 320872 321194 321493 321737 321952
3327.0876 322182 322445 322717 322944 323088 323150 323164 323154 323095
3331.4265 322919 322550 321964 321206 320356 319473 318573 317661 316814
3335.7656 316222 316139 316753 318041 319727 321372 322561 323086 323004
3340.1047 322575 322122 321886 321962 322295 322740 323124 323314 323254
3344.4438 322971 322555 322101 321665 321247 320821 320382 319983 319731
3348.7827 319731 320032 320587 321263 321895 322347 322545 322472 322137
3353.1218 321545 320705 319671 318576 317623 317014 316847 317063 317468
3357.4609 317828 317980 317883 317596 317211 316810 316455 316195 316058
3361.8000 316009 315922 315614 314947 313929 312761 311749 311163 311105
3366.1389 311495 312160 312956 313838 314826 315927 317063 318081 318818
3370.4780 319182 319184 318907 318460 317928 317376 316859 316441 316182
3374.8171 316108 316188 316332 316430 316402 316238 316003 315806 315754
3379.1563 315900 316218 316607 316911 316963 316632 315864 314715 313350
3383.4951 312013 310976 310461 310568 311234 312230 313230 313936 314201
3387.8342 314086 313802 313547 313328 312915 311959 310262 308009 305802
3392.1733 304433 304483 305973 308283 310400 311383 310802 308926 306575
3396.5125 304716 304021 304615 306101 307831 309244 310085 310417 310461
3400.8513 310403 310304 310136 309884 309623 309482 309551 309798 310074
3405.1904 310206 310099 309794 309430 309154 309044 309078 309166 309205
3409.5295 309132 308948 308706 308485 308351 308333 308420 308568 308717
3413.8687 308809 308797 308662 308422 308112 307724 307142 306116 304357
3418.2075 301718 298374 294870 291972 290359 290341 291750 294061 296661
3422.5466 299084 301115 302722 303924 304701 305010 304855 304355 303736
3426.8857 303242 303015 303038 303149 303143 302879 302350 301665 300986
3431.2249 300458 300164 300119 300284 300575 300884 301112 301209 301188
3435.5637 301113 301045 301012 301014 301050 301126 301210 301159 300693
3439.9028 299500 297424 294661 291809 289696 289015 289937 291872 293568
3444.2419 293565 290876 285587 279024 273332 270581 271839 276694 283511
3448.5811 290241 295330 298232 299320 299399 299176 299000 298907 298801
3452.9199 298603 298285 297846 297303 296707 296146 295703 295402 295201
3457.2590 295025 294831 294604 294307 293819 292949 291558 289712 287769
3461.5981 286294 285823 286581 288311 290329 291806 292146 291273 289663
3465.9373 288110 287337 287674 288944 290613 292091 293000 293305 293243
3470.2761 293131 293157 293269 293197 292620 291363 289558 287645 286210
3474.6152 285736 286370 287854 289637 291110 291845 291692 290707 288981
3478.9543 286517 283276 279369 275266 271817 269971 270334 272818 276623
3483.2935 280600 283753 285578 286061 285436 283966 281916 279692 277918
3487.6323 277266 278118 280288 283063 285564 287205 287927 288089 288127
3491.9714 288230 288238 287774 286496 284309 281471 278556 276304 275360
3496.3105 276002 277974 280545 282802 284008 283822 282241 279357 275176
3500.6497 269688 263168 256448 250859 247790 248088 251672 257615 264594
3504.9885 271367 276983 280699 281862 280031 275354 268894 262515 258238
3509.3276 257354 259851 264515 269640 273894 276810 278703 280182 281658
3513.6667 283144 284378 285086 285147 284588 283491 281935 280054 278134
3518.0059 276624 275950 276185 276781 276601 274363 269338 261924 253704
3522.3447 246850 243151 243165 245976 249675 252285 252615 250644 247332
3526.6838 244057 242018 241865 243638 246936 251164 255742 260231 264379
3531.0229 268114 271477 274477 276919 278311 277980 275444 270868 265306
3535.3621 260463 258011 258796 262407 267401 272043 275117 276343 276206
3539.7009 275413 274354 272884 270479 266590 260970 253824 245767 237645
3544.0400 230317 224471 220548 218777 219299 222244 227655 235252 244153
3548.3792 252797 259231 261743 259585 253421 245216 237598 232944 232599
3552.7183 236518 243422 251339 258321 263077 265326 265701 265243 264702
3557.0571 264077 262696 259843 255480 250501 246286 243835 243128 243201
3561.3962 242821 241201 238159 233690 227406 218469 206167 190750 173897
3565.7354 158438 147490 143471 147413 158737 175441 194627 213249 228924
3570.0745 240485 248006 252304 254269 254482 253288 251119 248643 246562
3574.4136 245245 244585 244225 243935 243753 243757 243742 243215 241823
3578.7524 239834 238162 237777 238909 240751 241962 241622 239814 237321
3583.0916 234621 231052 224915 214563 199747 182223 165204 152051 145102
3587.4307 145241 152162 164769 181265 199028 214796 225474 229310 226645
3591.7698 219640 211075 203047 196418 191250 187635 186109 187290 191143
3596.1086 196593 201878 205384 206346 204975 202124 198851 196169 194944
3600.4478 195779 198844 203816 210024 216677 222931 227752 229842 227944
3604.7869 221503 211170 198675 186055 174859 165969 160075 158116 160967
3609.1260 168383 178145 186411 189445 185692 176739 166482 159057 156940
3613.4648 160234 167225 175442 182465 186295 185557 179822 169914 157889
3617.8040 146513 138444 135520 138431 146728 159046 173416 187678 199958
3622.1431 209049 214535 216628 215871 212864 208057 201504 192659 180430
3626.4822 163796 142894 120008 99642 87269 87150 100275 123564 150812 174984
3631.3032 190807 196550 194308 188774 185077 186625 193865 204439 214605
3635.6423 221165 222911 220937 217772 215924 216668 219615 223157 225401
3639.9814 225111 222232 217886 213874 211891 212700 215566 218210 217450
3644.3203 210405 195831 174955 151252 129130 112065 101186 95135 91332 87876
3649.1416 84936 84759 90342 103634 124318 149723 175659 197568 211525 215059
3653.9626 207917 192638 174411 159742 154119 159709 174422 193031 209786
3658.3018 221022 226305 227703 227953 228856 230741 232969 234757 235694
3662.6409 235777 235231 234377 233526 232758 231584 228790 222737 212099
3666.9800 196610 177326 156318 136112 119320 108525 106036 113115 128792
3671.3188 149046 167278 176355 171508 152644 124829 96585 76729 71142 80792
3676.1401 101720 126917 149258 164257 171465 173935 176135 181489 190836
3680.4792 202480 213500 221362 224925 224587 221821 218475 216002 214669
3684.8181 213049 208310 197592 179952 157651 135630 119188 111224 110907
3689.1572 114748 119267 123333 128521 137386 151085 168130 185074 198460
3693.4963 206568 209888 210280 209674 209232 209321 209975 211249 213138
3697.8354 215155 216024 213902 207223 195814 181617 168435 160567 160870
3702.1743 169269 182636 196246 206082 210647 211197 210301 209697 208938
3706.5134 205760 197894 185003 169270 154175 142314 133925 127265 120584
3710.8525 114168 110773 113989 125651 144226 165404 184465 198686 208093
3715.1917 214236 218199 219560 217109 210581 201792 194005 189872 189489
3719.5305 190134 188063 181155 170559 160157 154175 154534 159681 165587
3723.8696 168206 165778 159651 153301 150367 152943 160929 172445 184690
3728.2087 194651 199562 197398 187609 171798 153657 137696 127164 122339
3732.5479 120447 117468 110777 100887 91122 85563 86744 94645 107350 122478
3737.3689 138122 152804 165043 173432 177423 178008 177255 176635 175312
3741.7080 170037 157208 135964 110135 87412 75917 80098 98316 123437 145995
3746.5291 158232 157050 144705 127169 111091 100821 96893 96681 96821 95939
3751.3503 95962 101050 114692 136831 163002 186240 200705 204729 201345 195964
3756.1714 192795 192435 192168 188682 181151 172478 167804 171355 183831
3760.5105 202032 220776 235555 244132 246339 242863 234435 222187 208598
3764.8496 197685 193606 198220 209288 220876 226141 221031 206697 189127
3769.1887 176189 173786 183254 201266 221994 240050 252569 259528 262630
3773.5276 263808 264312 264626 264772 264408 262630 257926 248796 234950
3777.8667 218345 203097 193984 194252 203984 219992 237235 250867 257841
3782.2058 257507 251312 242052 233026 227199 226413 230859 239081 248636
3786.5449 257128 263101 266371 267716 268245 268808 269714 270787 271635
3790.8838 271996 271937 271763 271581 270760 267739 260535 247913 230614
3795.2229 211810 196285 188505 190465 200375 212937 221210 219340 205031
3799.5620 180675 152628 128926 116421 118565 134614 160245 188996 213860
3803.9011 228789 230163 218136 197245 175463 161503 161300 175518 199531
3808.2400 225946 248118 262663 269806 271973 271918 271498 271253 270377
3812.5791 266801 257678 240678 215842 186901 160796 145107 144518 158271
3816.9182 180090 200644 211271 207200 189041 162260 135107 115856 110238
3821.2573 119835 141906 170632 199209 221926 235488 239339 235228 226424
3825.5962 216900 210504 210103 216721 228918 242824 253164 255233 247174
3829.9353 231368 213804 201303 197873 202441 209606 213126 209823 201131
3834.2744 191260 183535 177917 171629 162183 150093 138914 132686 133063
3838.6135 138571 146383 154776 163962 174726 186417 196465 202098 202835
3842.9524 201506 202780 210222 224043 241077 256734 267416 271858 270921
3847.2915 266424 259932 252090 242566 230410 214613 194652 170896 144741
3851.6306 118548 95466 79097 72842 78792 96492 122391 150696 175608 193881
3856.4517 206102 215766 226559 239583 252332 260147 259237 249286 233947
3860.7908 218864 208454 203469 200912 196368 187344 175466 166066 165270
3865.1299 176221 196673 219363 235023 236445 221628 194649 164131 140078
3869.4690 130305 137620 158712 185286 207324 217342 213758 201519 189469
3873.8079 185786 194066 212215 234452 254695 268974 275652 274177 264160
3878.1470 245902 221833 197183 178667 171615 177385 192732 211447 227025
3882.4861 234796 232796 221731 204680 186669 173691 170905 180575 200878
3886.8252 226408 250169 265989 270221 262354 244806 222313 200943 186581
3891.1641 183053 190671 206156 224235 240142 251596 259091 264464 268814
3895.5032 271216 269115 260107 243947 223399 203294 188262 180478 178816
3899.8423 179879 180181 178023 173924 169580 166384 164708 164379 165689
3904.1814 169882 178568 192486 210622 230383 248703 263298 273308 279154
3908.5203 281935 282869 282964 282878 282855 282793 282488 281943 281420
3912.8594 281050 280217 277335 270513 258937 244075 229637 219954 217614
3917.1985 221899 229180 235157 237499 237102 237140 240588 247941 256646
3921.5376 262537 262257 255145 243589 231859 224253 223472 229789 241129
3925.8765 253887 264224 269430 268849 263904 257140 250791 245702 241278
3930.2156 236430 230829 225559 222695 224108 230313 240104 251164 261181
3934.5547 268752 273594 276141 276957 276459 275041 273334 272185 272217
3938.8938 273213 273852 272158 266562 257013 245439 235190 229664 230775
3943.2327 238059 248831 259313 266174 267768 264520 258381 251710 246217
3947.5718 242526 240459 239713 240354 242748 247049 252718 258550 263251
3951.9109 266168 267588 268401 269390 270689 271799 272077 271285 269787
3956.2500 268323 267566 267798 268827 270102 270912 270613 268883 265954
3960.5889 262670 260224 259632 261213 264410 268091 271162 273088 274012
3964.9280 274441 274759 274938 274616 273466 271551 269399 267746 267103
3969.2671 267442 268213 268684 268375 267316 265972 264886 264328 264169
3973.6062 264062 263775 263421 263400 264123 265699 267824 269930 271480
3977.9451 272216 272207 271712 270997 270221 269460 268785 268318 268194
3982.2842 268470 269060 269758 270341 270693 270851 270962 271162 271465
3986.6233 271719 271658 271026 269720 267877 265879 264235 263405 263599
3990.9624 264668 266133 267361 267830 267358 266181 264853 263986 263980
3995.3013 264857 266293 267795 268942 269547 269679 269548 269361 269215
3999.6404 269091 268921
##END= 
