##TITLE= BKG
##JCAMP-DX= 4.24
##DATA TYPE= INFRARED SPECTRUM
##ORIGIN= JASCO
##OWNER= 
##DATE= 22/03/30
##TIME= 18:24:13
##SPECTROMETER/DATA SYSTEM= 
##RESOLUTION= 
##DELTAX=   0.48211674
##XUNITS= 1/CM
##YUNITS= ARBITRARY UNITS
##XFACTOR= 1.00000
##YFACTOR= 1E-005
##FIRSTX=   599.7532
##LASTX=  4000.1226
##NPOINTS=     7054
##FIRSTY=      1.22639
##MAXY=     10.48778
##MINY=      0.28013
##XYDATA= (X++(Y..Y))
599.7532 122639 122800 123680 125057 126523 127689 128360 128593 128606 128642
604.5744 128855 129284 129881 130567 131272 131946 132569 133138 133651 134096
609.3956 134453 134722 134948 135226 135654 136276 137034 137783 138335 138514
614.2167 138192 137296 135842 133993 132102 130683 130251 131098 133114 135796
619.0379 138447 140490 141714 142311 142707 143287 144175 145192 145984 146243
623.8591 145885 145107 144308 143900 144126 144957 146132 147303 148217 148823
628.6802 149242 149644 150094 150500 150676 150479 149905 149087 148209 147411
633.5014 146751 146249 145945 145910 146197 146769 147467 148064 148363 148285
638.3226 147902 147396 146983 146831 146995 147404 147878 148196 148186 147795
643.1437 147120 146360 145718 145295 145028 144712 144090 142995 141458 139736
647.9649 138227 137311 137188 137799 138863 140012 140942 141506 141731 141752
652.7861 141726 141756 141879 142090 142393 142820 143407 144129 144879 145511
657.6072 145951 146276 146692 147403 148472 149791 151178 152501 153739 154956
662.4284 156269 157873 160014 162734 165354 166025 161894 150232 130192 104216
667.2496 77990 58577 51509 58368 76208 99091 120795 137175 147082 151727
672.0707 153267 153549 153576 153632 153656 153537 153211 152674 151970 151210
676.8919 150533 150040 149722 149461 149109 148597 148003 147540 147474 148011
681.7131 149210 150943 152938 154875 156502 157702 158464 158813 158743 158250
686.5342 157436 156599 156202 156681 158203 160529 163107 165334 166833 167566
691.3554 167755 167695 167640 167810 168450 169811 172009 174851 177811 180222
696.1766 181613 181956 181673 181393 181638 182616 184234 186229 188319 190268
700.9977 191898 193093 193834 194224 194454 194727 195156 195745 196423 197128
705.8189 197846 198606 199433 200321 201228 202106 202929 203707 204475 205271
710.6401 206108 206945 207688 208232 208526 208616 208633 208712 208922 209237
715.4612 209595 209946 210234 210303 209827 208398 205798 202295 198738 196289
720.2824 195884 197741 201219 205141 208385 210369 211189 211365 211443 211695
725.1036 212097 212486 212752 212924 213118 213417 213795 214124 214256 214123
729.9247 213799 213471 213345 213527 213951 214407 214647 214507 213971 213131
734.7459 212109 210982 209770 208487 207169 205867 204589 203258 201715 199796
739.5671 197417 194632 191612 188571 185667 182951 180353 177740 174988 172045
744.3882 168961 165873 162952 160341 158102 156210 154584 153144 151868 150803
749.2094 150043 149665 149698 150122 150912 152068 153590 155424 157413 159331
754.0306 160992 162349 163506 164599 165654 166537 167074 167259 167370 167867
758.8517 169092 170982 173004 174382 174500 173218 170921 168301 166022 164487
763.6729 163780 163788 164347 165354 166784 168660 170997 173775 176920 180318
768.4941 183847 187423 191020 194668 198415 202276 206221 210192 214140 218037
773.3152 221870 225602 229156 232428 235328 237819 239921 241695 243204 244495
778.1364 245601 246555 247404 248203 248998 249810 250624 251395 252059 252564
782.9576 252883 253039 253103 253167 253312 253569 253902 254233 254483 254617
787.7787 254660 254678 254734 254853 255002 255112 255120 255006 254809 254610
792.5999 254487 254481 254575 254705 254797 254798 254695 254510 254285 254066
797.4211 253903 253850 253953 254231 254655 255146 255595 255911 256061 256087
802.2422 256079 256126 256269 256488 256724 256921 257064 257191 257364 257635
807.0634 258015 258468 258932 259350 259699 259996 260286 260614 260995 261400
811.8846 261773 262067 262274 262444 262665 263014 263517 264133 264772 265343
816.7057 265794 266128 266396 266663 266978 267357 267782 268214 268616 268973
821.5269 269302 269636 270012 270443 270921 271420 271919 272414 272914 273433
826.3481 273975 274537 275108 275678 276236 276769 277265 277717 278133 278537
831.1693 278957 279415 279918 280457 281014 281570 282116 282647 283160 283657
835.9904 284137 284597 285033 285441 285822 286188 286561 286962 287407 287890
840.8116 288387 288857 289256 289546 289710 289754 289707 289622 289556 289559
845.6328 289665 289893 290246 290718 291292 291941 292628 293326 294032 294774
850.4539 295592 296511 297515 298554 299567 300517 301413 302289 303177 304084
855.2751 304985 305851 306676 307483 308313 309192 310110 311016 311845 312560
860.0963 313178 313770 314432 315235 316186 317225 318261 319225 320110 320969
864.9174 321878 322888 323996 325155 326309 327426 328516 329609 330736 331908
869.7386 333112 334328 335534 336720 337881 339020 340140 341238 342315 343370
874.5598 344416 345483 346612 347844 349202 350676 352225 353787 355303 356740
879.3809 358093 359391 360673 361975 363315 364692 366093 367508 368929 370348
884.2021 371745 373089 374351 375528 376655 377794 378999 380285 381623 382957
889.0233 384241 385468 386662 387864 389096 390360 391634 392892 394114 395292
893.8444 396428 397529 398598 399631 400622 401578 402536 403568 404758 406158
898.6656 407742 409401 410980 412348 413462 414373 415193 416037 416977 418031
903.4868 419181 420392 421627 422846 424010 425089 426076 426985 427848 428693
908.3079 429546 430425 431346 432314 433319 434333 435322 436271 437198 438143
913.1291 439144 440200 441262 442255 443122 443852 444497 445143 445879 446767
917.9503 447823 449015 450275 451506 452617 453544 454284 454896 455484 456152
922.7714 456956 457879 458841 459737 460480 461037 461440 461763 462099 462528
927.5926 463086 463756 464473 465146 465695 466091 466372 466627 466955 467412
932.4138 467980 468573 469086 469443 469635 469717 469769 469858 470006 470199
937.2349 470407 470603 470775 470917 471029 471108 471159 471186 471193 471170
942.0561 471102 470983 470834 470709 470669 470750 470940 471173 471371 471472
946.8773 471454 471328 471115 470835 470503 470140 469773 469423 469087 468741
951.6984 468368 467981 467637 467407 467334 467392 467497 467555 467512 467387
956.5196 467243 467147 467124 467151 467181 467171 467104 466987 466844 466700
961.3408 466588 466531 466540 466603 466681 466725 466699 466606 466489 466430
966.1619 466520 466831 467391 468166 469067 469977 470800 471495 472089 472654
970.9831 473264 473957 474728 475542 476366 477185 478006 478849 479732 480666
975.8043 481647 482667 483710 484758 485799 486816 487788 488689 489495 490195
980.6254 490816 491418 492084 492885 493861 495003 496261 497567 498862 500112
985.4466 501312 502477 503626 504764 505878 506953 507984 508993 510019 511098
990.2678 512239 513420 514602 515750 516849 517899 518902 519857 520764 521637
995.0889 522509 523417 524374 525359 526321 527210 528005 528718 529382 530017
999.9101 530618 531167 531657 532108 532571 533091 533680 534298 534870 535324
1004.7313 535625 535794 535897 536012 536197 536466 536784 537080 537272
1009.0703 537299 537146 536857 536523 536243 536082 536041 536070 536103
1013.4094 536103 536072 536036 536007 535965 535870 535696 535451 535180
1017.7484 534927 534707 534499 534267 533996 533706 533438 533227 533068
1022.0875 532924 532741 532482 532142 531746 531326 530910 530510 530131
1026.4265 529780 529456 529154 528851 528517 528129 527688 527211 526714
1030.7656 526195 525636 525027 524396 523815 523366 523097 522979 522911
1035.1046 522762 522431 521881 521145 520302 519446 518656 517983 517429
1039.4437 516953 516482 515948 515319 514619 513906 513242 512649 512095
1043.7827 511520 510866 510115 509307 508522 507851 507352 507024 506804
1048.1218 506593 506299 505881 505357 504789 504237 503724 503219 502661
1052.4608 501995 501213 500362 499533 498814 498254 497831 497469 497067
1056.7999 496548 495892 495137 494354 493608 492934 492329 491775 491255
1061.1389 490761 490284 489801 489272 488661 487963 487217 486491 485854
1065.4780 485343 484955 484660 484430 484247 484093 483934 483712 483373
1069.8170 482894 482311 481710 481180 480771 480466 480197 479887 479490
1074.1561 479015 478516 478067 477729 477531 477458 477467 477499 477509
1078.4951 477483 477446 477453 477564 477824 478239 478781 479407 480080
1082.8342 480784 481525 482310 483127 483940 484700 485361 485899 486316
1087.1732 486632 486871 487058 487220 487394 487628 487965 488440 489060
1091.5123 489806 490625 491449 492202 492829 493313 493684 494006 494348
1095.8513 494757 495244 495789 496363 496946 497539 498151 498789 499443
1100.1904 500091 500700 501249 501738 502193 502656 503178 503791 504504
1104.5294 505308 506187 507134 508155 509264 510469 511757 513095 514435
1108.8685 515728 516936 518050 519088 520088 521087 522104 523129 524130
1113.2075 525078 525966 526815 527658 528531 529456 530450 531520 532664
1117.5466 533854 535036 536151 537177 538160 539208 540438 541911 543590
1121.8856 545358 547084 548694 550201 551684 553231 554884 556619 558360
1126.2247 560011 561495 562779 563888 564891 565885 566947 568113 569363
1130.5637 570650 571926 573169 574365 575488 576481 577273 577832 578198
1134.9028 578488 578842 579355 580031 580788 581505 582079 582455 582623
1139.2418 582596 582404 582098 581772 581556 581585 581941 582610 583484
1143.5809 584405 585252 585999 586731 587594 588715 590136 591803 593606
1147.9199 595451 597299 599168 601094 603097 605166 607282 609444 611679
1152.2590 614023 616496 619071 621682 624239 626662 628896 630930 632799
1156.5980 634581 636372 638257 640277 642409 644578 646689 648657 650438
1160.9371 652021 653413 654624 655668 656576 657422 658318 659382 660693
1165.2761 662246 663958 665714 667436 669122 670838 672670 674673 676858
1169.6152 679216 681747 684442 687242 689985 692442 694417 695884 697051
1173.9542 698279 699891 701974 704301 706426 707890 708427 708055 707040
1178.2933 705784 704723 704273 704793 706533 709549 713646 718398 723270
1182.6323 727784 731644 734746 737111 738798 739884 740505 740894 741364
1186.9714 742197 743519 745242 747119 748882 750375 751617 752752 753951
1191.3104 755319 756860 758494 760126 761699 763222 764746 766319 767933
1195.6495 769523 771014 772398 773775 775333 777248 779578 782221 784961
1199.9885 787577 789943 792062 794025 795934 797850 799778 801690 803562
1204.3276 805391 807203 809032 810900 812803 814710 816587 818415 820182
1208.6666 821850 823319 824436 825084 825302 825351 825656 826630 828461
1213.0057 831010 833880 836608 838871 840569 841784 842660 843316 843841
1217.3447 844339 844949 845810 846987 848426 849987 851535 853008 854413
1221.6838 855742 856899 857702 858010 857865 857558 857542 858216 859725
1226.0228 861895 864335 866649 868606 870198 871567 872879 874235 875651
1230.3619 877088 878507 879894 881266 882660 884111 885633 887207 888782
1234.7009 890295 891703 893010 894265 895537 896873 898274 899696 901094
1239.0400 902461 903841 905287 906788 908208 909316 909906 909943 909662
1243.3790 909502 909918 911155 913118 915420 917570 919192 920155 920559
1247.7181 920613 920493 920260 919857 919172 918100 916579 914584 912114
1252.0571 909197 905889 902272 898406 894282 889824 884976 879809 874554
1256.3962 869473 864607 859622 853924 847074 839275 831579 825590 822776
1260.7352 823771 828086 834411 841297 847812 853758 859375 864728 869227
1265.0743 871662 870848 866600 860414 855297 854576 860172 871298 884448
1269.4133 894864 898766 895099 885833 874699 865228 859231 856498 855606
1273.7524 855117 854382 853627 853504 854575 857039 860761 865431 870718
1278.0914 876356 882201 888279 894773 901933 909892 918514 927361 935869
1282.4305 943617 950537 956886 962943 968626 973325 976152 976539 974811
1286.7695 972295 970804 971757 975471 981094 987184 992529 996673 999878
1291.1086 1002674 1005411 1008097 1010525 1012466 1013741 1014189 1013689
1294.9656 1012319 1010534 1009143 1009003 1010558 1013571 1017242 1020638
1298.8225 1023151 1024693 1025559 1026128 1026639 1027133 1027526 1027696
1302.6794 1027535 1026997 1026152 1025193 1024339 1023638 1022833 1021454
1306.5364 1019164 1016163 1013319 1011839 1012563 1015250 1018314 1019260
1310.3933 1015728 1006679 993158 978160 965564 958544 958218 963223 970428
1314.7323 976383 978678 976516 970400 961409 950734 939775 930481 925309
1319.0714 926491 934877 949172 966183 982096 994059 1001184 1004459 1005798
1323.4104 1006890 1008512 1010539 1012411 1013663 1014193 1014221 1014046
1327.2673 1013826 1013518 1013004 1012299 1011632 1011320 1011495 1011954
1331.1243 1012329 1012490 1012793 1013795 1015469 1016523 1014531 1007090
1334.9812 993324 974568 953509 932220 910577 886525 858394 827811 800976
1339.3203 786886 793112 821508 866538 917357 962495 994453 1011778 1017936
1343.6593 1018266 1017121 1016631 1017077 1017883 1018267 1017398 1014512
1347.5162 1009342 1002632 996161 992023 991574 994788 1000424 1006670 1011680
1351.8553 1013761 1011538 1004504 993780 982305 973827 971050 974156 980855
1356.1943 987926 993047 995511 995490 992739 985929 973033 952232 922654
1360.5334 884851 841458 798033 763161 746658 755799 791339 845908 906233
1364.8724 958203 991930 1004243 997983 979504 956260 935353 922632 921661
1369.2115 932558 951454 971237 983471 980743 958773 917976 864316 808899
1373.5505 765568 746496 757250 793908 844241 892858 927716 944545 947022
1377.8896 943172 940582 943180 950829 961014 970930 978689 983511 985540
1382.2286 985732 985604 986256 986663 982369 966254 932134 879844 818556
1386.5677 765281 738080 747206 789394 849162 906703 947660 968749 976015
1390.9067 977450 975423 964219 934345 880608 808507 734591 680114 661171
1395.2458 680536 725554 773489 802003 799735 771624 736117 715678 725718
1399.5848 767908 831038 897879 953135 987856 999133 987596 956195 911362
1403.9240 864411 829980 820689 840844 883620 934197 977102 1003124 1011751
1408.2629 1008538 1000186 990981 982315 974420 968166 965454 968201 976880
1412.6021 989563 1001965 1008554 1004495 987613 959161 922446 879867 830546
1416.9410 771111 700234 624321 559779 528579 548025 620075 726880 836199
1421.2802 914724 942610 921671 873143 826594 806093 820694 863339 917361
1425.6191 965738 997598 1009254 1001236 975293 934382 885106 839104 810175
1429.9583 807639 830412 866837 901397 923825 933681 936615 935319 923038
1434.2972 886149 815301 717202 617502 550968 544162 601453 703062 815868
1438.6364 909682 969257 996378 1003257 1003149 1003976 1007231 1010714 1012103
1442.9753 1011070 1009165 1007926 1006413 999830 980837 943845 890412 832034
1447.3145 787250 773298 796616 848173 907146 951256 967728 958423 936561
1451.6534 917562 909720 909735 904815 879449 823072 735113 625650 511982
1455.9926 413070 344388 315076 327676 379300 462767 567293 679556 785986
1460.3315 875783 942724 984244 998567 982986 936022 862824 779359 710341
1464.6707 679884 699702 762580 845978 923804 978804 1007847 1017702 1015481
1469.0096 1000971 965985 900700 802581 682327 563186 473463 435262 454537
1473.3488 517573 596531 662246 698056 707114 708869 726720 774159 847404
1477.6877 928129 993649 1028075 1028564 1004604 972257 947033 938597 948791
1482.0269 972882 1002701 1029794 1047065 1048779 1030339 989542 929199 858682
1486.3658 791474 738569 701777 672582 638926 595979 552898 529738 545923
1490.7050 608173 706050 817228 917459 988100 1018121 1003120 945588 857092
1495.0439 758555 674706 623826 609392 620362 640580 660406 681668 712624
1499.3831 757884 812193 863168 900109 920858 930597 933671 925652 892845
1503.7220 820603 704822 558480 408471 284673 208013 184293 206128 260075
1508.0612 333433 416812 502539 582227 646931 690479 713376 723642 732992
1512.4001 750152 775233 798546 804711 780157 720651 635541 546501 480367
1516.7393 458157 484717 544372 605938 635858 613538 541196 443167 355103
1521.0782 308547 318140 376891 460871 540576 593585 612785 606633 591978
1525.4174 583980 589185 605450 627570 653515 686237 729891 783832 839327
1529.7563 881533 895385 871804 811338 724570 629993 550033 505491 509272
1534.0955 561462 648142 744887 823564 859788 838909 759713 635458 491395
1538.4344 357994 261079 212948 209459 235167 273287 313851 354936 397532
1542.7736 439722 475947 502236 522477 549353 597615 673630 768445 859455
1547.1125 920124 932304 894790 824409 749791 700583 695920 736114 801186
1551.4517 858196 875722 839433 760400 670370 605203 585200 603734 631093
1555.7906 631213 581180 482251 357272 238130 152131 114804 130529 196793
1560.1298 306751 448277 602104 743212 847137 898736 898563 863035 818094
1564.4688 789266 792242 827232 878730 920914 927547 883549 793650 683340
1568.8079 590009 547270 570039 648511 754458 855851 930661 971770 981635
1573.1469 962802 913002 829213 717203 597913 503747 465255 496113 586045
1577.4860 706159 823084 913166 969077 997025 1008610 1013408 1016040 1017457
1581.8250 1017641 1017187 1017129 1018038 1019610 1021074 1021889 1022062
1585.6819 1021907 1021571 1020772 1018901 1015366 1009963 1003114 995918
1589.5389 989961 986825 987352 990921 995229 996926 993088 982871 968376
1593.8779 954045 944745 943568 950621 963427 978491 992865 1004792 1013363
1598.2170 1017932 1017988 1013507 1005220 994330 981917 968735 955781 945103
1602.5560 939726 942145 952166 965838 976759 979315 971741 956821 939705
1606.8951 924525 912416 902357 893912 889274 892555 906576 929710 955637
1611.2341 976688 988442 991740 989950 983127 963911 919659 841136 732729
1615.5732 616634 526427 492175 525440 613348 725455 828977 902777 942026
1619.9122 952434 940226 906273 848701 771081 688619 626024 606822 640348
1624.2513 714775 801052 866016 887634 864434 814724 766754 745249 760907
1628.5903 807419 866666 918817 951815 965201 966422 962259 951178 922146
1632.9294 861399 763217 637623 509487 408948 358645 365081 418454 499766
1637.2684 589958 675826 750729 811902 857747 887278 901411 904200 902150
1641.6075 901326 903601 904307 893114 858396 793321 700581 593041 489742
1645.9465 409408 364940 361312 396611 463823 551292 642039 714340 745809
1650.2856 720675 636960 509432 366235 240515 160713 143233 189456 287107
1654.6246 414865 548673 668023 760438 822849 859772 879536 890331 897309
1658.9637 901038 897362 879069 839783 779234 707100 642060 604907 608747
1663.3027 652168 719977 791045 847783 880974 887931 867684 818975 743452
1667.6418 650680 558939 488995 454397 455584 482371 522495 568748 618793
1671.9808 668608 706778 716658 686733 621828 545875 492468 488183 538837
1676.3199 626800 720204 787992 812570 794693 750094 700845 665440 651044
1680.6589 650450 645170 614187 545166 442933 330399 240541 202779 230351
1684.9980 314872 430451 544818 631755 679245 690666 679933 663953 656024
1689.3370 662496 683017 713118 747163 779947 806319 819701 811435 772780
1693.6761 699681 598120 486310 390876 337173 337698 384507 450366 499300
1698.0151 502344 451273 363486 275138 225207 237899 311945 422067 531534
1702.3542 608876 639893 629546 594737 554066 521078 503388 505181 528681
1706.6932 572596 629510 686086 727863 746409 743975 732087 724537 729021
1711.0323 742466 752683 745191 711365 653543 584409 520827 475183 448944
1715.3713 432422 411470 377544 334959 300371 294286 329570 403930 500638
1719.7104 596447 671497 715813 730174 722822 705001 687391 677746 679388
1724.0494 690778 706776 721525 731404 735966 736095 731004 717036 690039
1728.3885 649999 604156 565180 544328 543477 551619 549139 518377 454646
1732.7275 371019 293649 249941 256119 310789 397183 491489 571833 623579
1737.0667 640359 623264 580470 526987 482064 462800 476114 514248 557950
1741.4056 586667 589812 571949 548719 536547 543014 563556 585428 595385
1745.7448 586276 559563 523615 489363 465388 454308 452091 450971 444837
1750.0837 434070 426540 433628 463450 515498 579957 641788 686791 706315
1754.4229 698974 669889 628812 587916 559152 551117 566077 598468 635986
1758.7618 663359 667803 644285 598444 545436 504401 490511 508383 550538
1763.1010 601900 647530 678679 693694 694355 681720 655437 616984 573291
1767.4399 536330 517415 519595 533793 542304 528298 485801 424086 363784
1771.7791 326937 326523 360970 416119 473004 516933 543103 556305 565755
1776.1180 578589 595813 612500 621329 616938 598736 571304 542802 522289
1780.4572 516665 527926 551732 578437 596890 599603 586583 565396 547194
1784.7961 540952 549304 568178 589872 607202 616155 615999 607598 591559
1789.1353 567452 534449 492902 446056 400870 367023 353751 365505 398714
1793.4742 442153 481624 506790 516050 516123 516473 522366 531403 535879
1797.8134 528966 510023 485226 463450 450849 448114 451901 458548 466844
1802.1523 477918 492978 511174 529343 543569 551152 551612 546463 538286
1806.4915 529744 522696 517442 512411 504828 492447 475510 457513 443904
1810.8304 439293 444919 458073 473747 487269 496135 500074 499854 496069
1815.1696 488874 478604 466472 454601 445298 440056 438915 440489 442594
1819.5085 443186 441235 437117 432206 427715 423376 416957 405316 386705
1823.8477 362980 340032 325610 325368 339275 360602 378382 382328 367757
1828.1866 338047 303360 276248 266258 276085 301016 331709 358714 376361
1832.5258 384180 385497 384473 383503 382419 379572 373753 365543 357270
1836.8647 351757 350726 353852 359000 363437 365261 364099 360601 355053
1841.2039 346211 331541 309135 280224 250364 227902 220094 229088 250399
1845.5428 275079 294352 303878 305103 303206 303352 307775 315266 322821
1849.8820 327878 329634 328907 327113 325306 323831 322549 321240 319834
1854.2209 318394 316977 315517 313822 311678 309001 305945 302888 300262
1858.5601 298330 297046 296101 295141 293998 292786 291802 291285 291195
1862.8990 291110 290313 288029 283680 277039 268178 257289 244561 230319
1867.2382 215430 201671 191638 187983 192219 203771 219913 236758 250795
1871.5771 260137 264835 266245 265997 265209 264304 263283 262089 260765
1875.9163 259397 258005 256525 254891 253122 251332 249682 248314 247302
1880.2552 246620 246107 245478 244403 242643 240166 237177 234063 231303
1884.5944 229382 228634 228995 229729 229400 226337 219530 209511 198558
1888.9333 189904 186266 188505 195250 203656 210789 214767 215111 212396
1893.2725 207673 202130 197005 193485 192399 193822 196929 200343 202801
1897.6115 203713 203267 202069 200670 199299 197938 196530 195099 193706
1901.9506 192351 190966 189519 188089 186823 185776 184798 183570 181779
1906.2896 179286 176175 172678 169071 165653 162772 160836 160207 161013
1910.6287 162991 165490 167673 168853 168790 167793 166508 165475 164669
1914.9677 163334 160310 154756 146903 138307 131370 128266 129849 135151
1919.3068 141753 146828 148321 145700 140010 133311 127808 125048 125448
1923.6458 128295 132162 135557 137492 137755 136770 135210 133605 132160
1927.9849 130820 129459 128014 126513 125007 123508 121990 120437 118879
1932.3239 117396 116066 114918 113919 112987 112041 111028 109936 108769
1936.6630 107537 106273 105058 103996 103113 102207 100801 98308 94403 89388
1941.4841 84262 80360 78686 79369 81571 83949 85372 85448 84558 83444 82693
1946.7874 82434 82408 82250 81755 80948 79984 79008 78079 77194 76331 75478
1952.0907 74615 73697 72681 71558 70386 69257 68242 67341 66473 65530 64438
1957.3939 63187 61821 60405 58997 57649 56420 55370 54536 53901 53386 52892
1962.6973 52343 51712 50989 50144 49107 47820 46324 44804 43550 42825 42726
1968.0005 43118 43700 44151 44273 44045 43581 43034 42507 42032 41594 41177
1973.3038 40781 40418 40088 39762 39394 38950 38453 37993 37721 37790 38293
1978.6071 39219 40448 41805 43125 44311 45343 46251 47069 47808 48462 49037
1983.9104 49572 50116 50687 51227 51610 51711 51508 51135 50831 50799 51050
1989.2136 51356 51366 50829 49792 48627 47851 47852 48688 50072 51552 52745
1994.5170 53487 53828 53913 53859 53704 53444 53093 52712 52378 52138 51977
1999.8202 51826 51609 51275 50815 50244 49581 48831 47996 47080 46097 45073
2005.1235 44044 43054 42159 41423 40902 40623 40562 40648 40788 40900 40938
2010.4268 40896 40797 40674 40562 40489 40467 40472 40431 40246 39840 39214
2015.7301 38470 37782 37315 37151 37261 37536 37854 38129 38326 38437 38456
2021.0333 38374 38198 37966 37744 37594 37541 37560 37594 37587 37514 37394
2026.3367 37273 37200 37199 37266 37377 37499 37610 37696 37751 37773 37759
2031.6399 37715 37658 37622 37650 37785 38061 38487 39048 39706 40407 41107
2036.9432 41779 42420 43039 43634 44188 44682 45115 45521 45959 46483 47111
2042.2465 47818 48564 49317 50069 50821 51565 52276 52931 53533 54119 54747
2047.5498 55474 56352 57450 58859 60667 62897 65438 68031 70351 72130 73278
2052.8530 73914 74294 74683 75247 76015 76916 77854 78763 79623 80435 81198
2058.1563 81893 82501 83022 83500 84008 84613 85330 86087 86737 87125 87172
2063.4597 86948 86658 86565 86866 87610 88682 89880 91019 92001 92828 93555
2068.7629 94240 94919 95603 96296 97005 97729 98463 99199 99942 100716 101548
2074.0662 102449 103393 104328 105208 106017 106781 107548 108358 109225
2078.4053 110136 111073 112027 113000 113989 114980 115943 116851 117696
2082.7444 118487 119245 119970 120643 121231 121713 122096 122406 122666
2087.0833 122872 123001 123035 123000 122969 123028 123225 123521 123798
2091.4224 123905 123733 123260 122557 121754 120982 120333 119851 119535
2095.7615 119360 119299 119320 119400 119521 119679 119883 120148 120483
2100.1006 120880 121316 121755 122175 122571 122964 123385 123860 124395
2104.4395 124969 125540 126056 126473 126768 126953 127075 127196 127368
2108.7786 127615 127920 128250 128580 128906 129243 129600 129960 130290
2113.1177 130557 130763 130947 131163 131445 131775 132086 132286 132293
2117.4568 132072 131641 131059 130405 129743 129100 128462 127784 127018
2121.7957 126135 125143 124075 122974 121868 120765 119645 118478 117230
2126.1348 115877 114412 112843 111195 109493 107752 105967 104121 102189
2130.4739 100155 98014 95773 93444 91047 88620 86226 83948 81875 80068 78536
2135.7771 77227 76049 74910 73752 72577 71430 70362 69395 68504 67625 66694
2141.0803 65676 64578 63438 62297 61183 60102 59049 58020 57012 56024 55053
2146.3838 54100 53173 52291 51475 50728 50027 49324 48561 47689 46687 45571
2151.6870 44391 43214 42102 41093 40181 39319 38437 37464 36353 35090 33704
2156.9902 32255 30844 29595 28642 28097 28013 28372 29092 30061 31165 32309
2162.2935 33418 34430 35305 36034 36648 37216 37817 38509 39307 40184 41091
2167.5969 41979 42814 43579 44267 44877 45411 45877 46272 46584 46785 46842
2172.9001 46747 46528 46256 46022 45903 45940 46126 46427 46799 47207 47616
2178.2034 47993 48295 48478 48515 48419 48245 48081 48024 48146 48469 48961
2183.5066 49556 50180 50784 51354 51903 52452 53009 53556 54068 54523 54928
2188.8101 55312 55722 56195 56742 57339 57932 58464 58899 59241 59538 59860
2194.1133 60263 60765 61336 61912 62433 62874 63251 63611 63997 64424 64870
2199.4165 65302 65701 66081 66475 66911 67387 67868 68310 68686 68999 69281
2204.7197 69557 69841 70130 70421 70725 71066 71459 71903 72373 72840 73287
2210.0232 73714 74132 74550 74968 75382 75791 76200 76619 77047 77473 77879
2215.3264 78257 78615 78981 79391 79867 80407 80980 81537 82037 82466 82842
2220.6296 83206 83599 84041 84521 85011 85488 85948 86409 86897 87431 88013
2225.9329 88637 89291 89967 90655 91337 91989 92592 93142 93660 94186 94764
2231.2363 95421 96162 96960 97773 98553 99263 99887 100433 100931 101422
2236.0574 101942 102515 103153 103855 104612 105411 106233 107053 107848
2240.3965 108599 109299 109959 110596 111232 111883 112556 113254 113977
2244.7356 114724 115491 116264 117020 117733 118392 119004 119603 120226
2249.0745 120895 121594 122269 122860 123336 123710 124045 124413 124863
2253.4136 125404 126014 126664 127350 128095 128936 129900 130979 132127
2257.7527 133278 134364 135343 136209 136990 137730 138473 139247 140066
2262.0918 140933 141842 142778 143713 144618 145475 146295 147121 148012
2266.4307 149019 150154 151394 152694 154014 155344 156694 158086 159526
2270.7698 161002 162491 163976 165459 166968 168538 170193 171934 173739
2275.1089 175584 177456 179370 181353 183435 185630 187931 190319 192773
2279.4480 195282 197852 200500 203239 206075 208990 211943 214876 217723
2283.7869 220435 222990 225404 227716 229968 232182 234354 236463 238493
2288.1260 240446 242346 244213 246045 247813 249470 250982 252341 253569
2292.4651 254703 255770 256771 257684 258471 259104 259588 259971 260329
2296.8042 260725 261164 261578 261855 261906 261725 261399 261059 260804
2301.1431 260651 260534 260351 260004 259415 258511 257218 255479 253301
2305.4822 250772 248046 245275 242549 239873 237200 234494 231771 229089
2309.8213 226512 224073 221782 219665 217805 216337 215381 214941 214849
2314.1604 214776 214334 213210 211268 208557 205243 201508 197475 193215
2318.4993 188805 184389 180189 176449 173342 170914 169100 167823 167094
2322.8384 167039 167804 169382 171468 173468 174683 174582 173015 170230
2327.1775 166703 162890 159077 155380 151856 148607 145781 143505 141839
2331.5166 140788 140348 140495 141080 141736 141912 141108 139178 136499
2335.8555 133821 131877 130975 130846 130836 130305 128980 127056 125030
2340.1946 123404 122441 122105 122183 122488 123027 124012 125756 128554
2344.5337 132712 138721 147409 159765 176321 196301 217116 234733 244975
2348.8728 245200 235442 218353 197967 178026 160750 146608 134928 124783
2353.2117 115581 107153 99543 92781 86828 81635 77196 73514 70538 68148 66202
2358.5151 64615 63385 62552 62127 62056 62238 62576 63033 63643 64493 65673
2363.8184 67242 69200 71501 74077 76874 79873 83091 86569 90355 94492 99021
2369.1216 103976 109385 115260 121597 128375 135563 143135 151079 159398
2373.4607 168103 177196 186658 196450 206531 216880 227508 238444 249711
2377.7998 261291 273122 285104 297124 309075 320858 332379 343548 354275
2382.1387 364475 374065 382952 391033 398200 404365 409482 413566 416687
2386.4778 418943 420447 421304 421618 421498 421052 420379 419545 418576
2390.8169 417455 416153 414660 413001 411242 409465 407742 406105 404541
2395.1560 403007 401455 399858 398221 396573 394949 393363 391805 390239
2399.4949 388629 386950 385209 383434 381671 379962 378329 376769 375247
2403.8340 373715 372131 370481 368795 367139 365595 364236 363100 362181
2408.1731 361438 360804 360203 359565 358848 358040 357167 356271 355387
2412.5122 354517 353636 352706 351713 350681 349666 348717 347851 347042
2416.8511 346244 345421 344571 343718 342893 342105 341335 340553 339737
2421.1902 338889 338037 337220 336469 335797 335190 334617 334045 333452
2425.5293 332840 332227 331637 331079 330542 330000 329427 328809 328145
2429.8684 327449 326742 326051 325402 324822 324318 323871 323438 322976
2434.2073 322466 321935 321445 321059 320805 320654 320538 320388 320168
2438.5464 319891 319599 319338 319131 318977 318857 318752 318651 318542
2442.8855 318418 318273 318110 317945 317804 317706 317658 317649 317667
2447.2246 317708 317780 317894 318050 318228 318400 318539 318641 318724
2451.5635 318816 318940 319102 319295 319511 319753 320033 320361 320726
2455.9026 321101 321443 321716 321906 322017 322065 322063 322020 321944
2460.2417 321851 321762 321693 321643 321586 321484 321305 321043 320722
2464.5808 320383 320067 319795 319568 319367 319165 318938 318674 318373
2468.9197 318046 317708 317368 317028 316682 316327 315963 315601 315254
2473.2588 314928 314625 314344 314080 313833 313602 313377 313141 312877
2477.5979 312579 312258 311942 311660 311424 311220 311014 310770 310467
2481.9370 310117 309753 309415 309126 308881 308650 308397 308099 307760
2486.2759 307412 307099 306859 306702 306611 306545 306459 306326 306139
2490.6150 305916 305684 305470 305288 305140 305017 304898 304761 304595
2494.9541 304407 304226 304092 304030 304035 304066 304065 303987 303817
2499.2932 303577 303302 303026 302767 302535 302338 302182 302065 301970
2503.6321 301870 301739 301569 301377 301194 301047 300952 300909 300905
2507.9712 300923 300938 300926 300865 300742 300555 300321 300065 299815
2512.3103 299601 299441 299339 299277 299225 299151 299040 298901 298760
2516.6494 298647 298580 298563 298588 298642 298713 298781 298819 298798
2520.9883 298699 298527 298319 298128 298006 297977 298030 298117 298178
2525.3274 298163 298056 297877 297676 297505 297398 297363 297384 297432
2529.6665 297482 297514 297522 297510 297488 297473 297482 297537 297652
2534.0056 297833 298067 298320 298546 298706 298785 298802 298796 298803
2538.3445 298832 298866 298876 298858 298842 298881 299024 299283 299626
2542.6836 299993 300324 300584 300768 300894 300988 301071 301161 301277
2547.0227 301437 301653 301930 302252 302586 302897 303165 303393 303609
2551.3618 303848 304127 304438 304748 305026 305257 305457 305659 305893
2555.7007 306173 306490 306828 307174 307531 307913 308325 308760 309194
2560.0398 309603 309978 310336 310707 311117 311563 312019 312451 312849
2564.3789 313238 313669 314183 314781 315418 316029 316566 317020 317428
2568.7180 317840 318297 318815 319387 319996 320620 321241 321843 322424
2573.0569 322999 323600 324257 324979 325747 326519 327263 327972 328665
2577.3960 329374 330117 330888 331672 332462 333263 334093 334960 335855
2581.7351 336760 337659 338549 339438 340327 341204 342045 342840 343606
2586.0742 344392 345254 346220 347266 348332 349350 350291 351183 352101
2590.4133 353120 354276 355549 356875 358186 359438 360629 361777 362908
2594.7522 364036 365161 366284 367414 368578 369813 371147 372584 374094
2599.0913 375624 377119 378545 379907 381246 382617 384059 385577 387151
2603.4304 388746 390340 391926 393511 395102 396702 398315 399945 401603
2607.7695 403296 405030 406800 408602 410435 412303 414205 416129 418054
2612.1084 419953 421812 423643 425484 427383 429382 431490 433678 435894
2616.4475 438087 440231 442336 444442 446591 448809 451092 453416 455749
2620.7866 458072 460382 462695 465035 467427 469889 472427 475033 477689
2625.1257 480369 483047 485707 488344 490969 493604 496277 499016 501832
2629.4646 504710 507619 510521 513400 516275 519187 522174 525234 528321
2633.8037 531371 534348 537282 540255 543360 546637 550051 553506 556906
2638.1428 560201 563409 566589 569806 573096 576460 579878 583323 586775
2642.4819 590218 593644 597052 600458 603887 607367 610913 614518 618152
2646.8208 621777 625354 628869 632334 635784 639262 642795 646384 649997
2651.1599 653590 657135 660629 664096 667562 671030 674468 677827 681066
2655.4990 684178 687188 690139 693061 695956 698805 701583 704273 706868
2659.8381 709357 711713 713894 715853 717564 719023 720249 721267 722096
2664.1770 722743 723214 723518 723677 723723 723692 723615 723511 723375
2668.5161 723185 722908 722524 722046 721527 721042 720658 720395 720213
2672.8552 720032 719765 719365 718844 718257 717673 717139 716666 716236
2677.1943 715822 715415 715024 714659 714319 713974 713581 713097 712500
2681.5332 711798 711022 710211 709408 708650 707968 707373 706860 706402
2685.8723 705964 705521 705066 704607 704151 703691 703211 702697 702150
2690.2114 701588 701031 700492 699967 699449 698941 698457 698011 697596
2694.5505 697182 696728 696211 695644 695068 694532 694058 693635 693228
2698.8894 692805 692356 691890 691417 690931 690409 689830 689203 688569
2703.2285 687986 687489 687061 686641 686153 685549 684839 684082 683360
2707.5676 682734 682224 681811 681446 681079 680674 680220 679736 679253
2711.9067 678804 678401 678028 677649 677231 676760 676252 675736 675239
2716.2456 674762 674288 673790 673245 672649 672014 671369 670761 670234
2720.5847 669814 669482 669171 668795 668298 667700 667104 666643 666403
2724.9238 666361 666384 666292 665944 665301 664437 663488 662588 661815
2729.2629 661178 660638 660137 659634 659112 658583 658070 657590 657142
2733.6018 656712 656286 655864 655469 655124 654839 654588 654319 653979
2737.9409 653537 653002 652411 651808 651219 650646 650070 649477 648865
2742.2800 648248 647642 647054 646482 645926 645403 644945 644576 644291
2746.6191 644046 643778 643444 643049 642643 642278 641970 641675 641314
2750.9580 640816 640159 639377 638540 637727 636995 636377 635874 635465
2755.2971 635108 634758 634377 633957 633505 633042 632574 632098 631607
2759.6362 631100 630596 630113 629660 629228 628795 628341 627866 627385
2763.9753 626918 626474 626046 625607 625131 624598 624002 623352 622667
2768.3142 621974 621301 620675 620121 619649 619252 618907 618594 618305
2772.6533 618049 617844 617683 617520 617281 616896 616338 615642 614879
2776.9924 614120 613397 612706 612027 611360 610742 610218 609818 609518
2781.3315 609252 608939 608523 608007 607436 606872 606352 605865 605370
2785.6704 604835 604275 603752 603342 603075 602904 602726 602435 601989
2790.0095 601425 600821 600240 599684 599106 598460 597746 597007 596302
2794.3486 595656 595060 594497 593980 593568 593320 593244 593264 593242
2798.6877 593044 592607 591961 591200 590422 589686 589007 588373 587774
2803.0266 587215 586706 586237 585772 585262 584661 583960 583199 582463
2807.3657 581855 581462 581312 581359 581493 581580 581509 581227 580741
2811.7048 580102 579369 578598 577826 577085 576396 575769 575195 574651
2816.0439 574113 573568 573028 572526 572093 571737 571435 571132 570771
2820.3828 570314 569766 569169 568584 568061 567620 567246 566899 566536
2824.7219 566122 565637 565084 564483 563869 563279 562739 562253 561802
2829.0610 561355 560887 560383 559833 559224 558550 557823 557090 556417
2833.4001 555860 555417 555023 554582 554030 553385 552742 552221 551884
2837.7390 551697 551534 551240 550704 549892 548851 547671 546447 545250
2842.0781 544118 543047 542007 540948 539838 538684 537552 536548 535765
2846.4172 535237 534903 534631 534278 533749 533039 532224 531412 530696
2850.7563 530119 529669 529299 528956 528601 528226 527849 527500 527200
2855.0952 526939 526677 526364 525986 525587 525263 525118 525196 525445
2859.4343 525726 525878 525793 525465 524978 524454 523989 523614 523308
2863.7734 523030 522758 522499 522266 522048 521798 521449 520945 520281
2868.1125 519505 518693 517920 517232 516650 516193 515888 515761 515812
2872.4514 515981 516153 516194 516004 515564 514932 514209 513482 512789
2876.7905 512118 511438 510734 510024 509347 508736 508198 507716 507266
2881.1296 506836 506435 506078 505772 505498 505217 504886 504476 503991
2885.4688 503464 502948 502485 502093 501752 501413 501015 500519 499920
2889.8076 499250 498556 497870 497192 496491 495736 494936 494155 493494
2894.1467 493043 492827 492783 492781 492682 492392 491890 491217 490440
2898.4858 489619 488793 487980 487193 486440 485734 485091 484542 484120
2902.8250 483841 483672 483520 483263 482795 482086 481196 480242 479342
2907.1638 478562 477904 477327 476769 476177 475507 474737 473875 472969
2911.5029 472090 471299 470606 469962 469278 468476 467533 466490 465429
2915.8420 464430 463548 462797 462158 461588 461032 460440 459781 459064
2920.1812 458335 457657 457083 456634 456293 456018 455760 455479 455141
2924.5200 454722 454213 453629 453021 452474 452093 451969 452147 452593
2928.8591 453197 453794 454217 454343 454132 453636 452972 452283 451697
2933.1982 451285 451055 450954 450895 450793 450606 450346 450078 449877
2937.5374 449792 449816 449883 449900 449791 449533 449167 448787 448495
2941.8762 448359 448372 448459 448502 448399 448103 447633 447055 446437
2946.2153 445817 445194 444538 443819 443021 442153 441259 440412 439708
2950.5544 439226 438987 438928 438912 438786 438457 437931 437305 436697
2954.8936 436181 435754 435361 434954 434529 434127 433790 433521 433283
2959.2324 433027 432744 432479 432315 432314 432469 432693 432852 432823
2963.5715 432551 432065 431468 430895 430455 430201 430120 430151 430223
2967.9106 430300 430384 430502 430663 430826 430903 430796 430462 429954
2972.2498 429415 429025 428916 429100 429454 429760 429800 429444 428709
2976.5886 427741 426750 425914 425323 424971 424798 424741 424763 424841
2980.9277 424930 424955 424826 424486 423949 423294 422621 421989 421387
2985.2668 420752 420029 419233 418456 417831 417457 417347 417429 417599
2989.6060 417781 417958 418151 418355 418507 418494 418212 417640 416878
2993.9448 416118 415577 415406 415636 416167 416816 417376 417685 417664
2998.2839 417326 416756 416067 415364 414704 414079 413423 412654 411729
3002.6230 410692 409672 408846 408365 408293 408585 409101 409637 409973
3006.9622 409920 409393 408451 407290 406149 405185 404392 403639 402816
3011.3010 401967 401312 401094 401386 401992 402541 402707 402405 401824
3015.6401 401281 401028 401137 401531 402093 402749 403457 404147 404681
3019.9792 404899 404719 404215 403602 403122 402913 402938 403021 402970
3024.3184 402695 402253 401791 401448 401278 401225 401154 400885 400217
3028.6572 398973 397082 394687 392193 390179 389174 389394 390621 392313
3032.9963 393883 394988 395627 396034 396446 396931 397374 397601 397522
3037.3354 397186 396742 396346 396089 395985 395999 396083 396192 396287
3041.6746 396334 396307 396196 396020 395823 395656 395529 395378 395046
3046.0134 394335 393113 391429 389563 387965 387076 387127 388013 389320
3050.3525 390514 391186 391232 390848 390357 389960 389598 388998 387899
3054.6917 386294 384521 383129 382582 383003 384100 385319 386128 386264
3059.0308 385816 385121 384546 384275 384206 384017 383359 382070 380292
3063.3696 378412 376851 375851 375396 375309 375448 375834 376609 377857
3067.7087 379451 381047 382243 382794 382721 382254 381667 381137 380701
3072.0479 380314 379918 379480 378976 378381 377687 376924 376166 375487
3076.3870 374905 374363 373779 373118 372441 371878 371538 371439 371502
3080.7258 371621 371747 371923 372227 372677 373171 373512 373521 373136
3085.0649 372459 371699 371055 370635 370433 370383 370433 370575 370821
3089.4041 371149 371469 371649 371576 371209 370575 369714 368616 367223
3093.7432 365510 363601 361807 360545 360137 360626 361711 362868 363592
3098.0820 363609 362957 361913 360825 359963 359443 359242 359270 359436
3102.4211 359690 360022 360426 360849 361177 361275 361065 360602 360071
3106.7603 359700 359638 359871 360239 360526 360565 360290 359730 358976
3111.0994 358141 357342 356646 356031 355375 354532 353462 352319 351403
3115.4382 350981 351073 351410 351600 351419 350992 350717 350944 351657
3119.7773 352397 352523 351640 349899 347962 346628 346385 347147 348347
3124.1165 349280 349499 349003 348175 347522 347412 347930 348919 350115
3128.4556 351269 352196 352737 352725 352007 350552 348560 346476 344849
3132.7944 344098 344310 345201 346275 347070 347369 347239 346929 346691
3137.1335 346660 346833 347124 347423 347639 347703 347568 347232 346753
3141.4727 346244 345829 345593 345536 345581 345615 345547 345342 345022
3145.8118 344636 344226 343808 343370 342892 342368 341824 341322 340943
3150.1506 340762 340815 341080 341476 341886 342196 342326 342256 342017
3154.4897 341663 341249 340807 340354 339904 339483 339128 338870 338713
3158.8289 338625 338550 338431 338236 337971 337676 337401 337189 337056
3163.1680 336986 336934 336846 336681 336421 336087 335721 335367 335058
3167.5068 334803 334595 334415 334243 334064 333876 333693 333535 333411
3171.8459 333310 333204 333073 332937 332831 332754 332599 332155 331199
3176.1851 329672 327802 326078 325049 325049 326009 327500 328962 329986
3180.5242 330470 330560 330455 330233 329815 329084 328046 326899 325958
3184.8630 325486 325556 326027 326641 327165 327487 327624 327652 327630
3189.2021 327570 327455 327290 327116 326988 326932 326917 326865 326698
3193.5413 326374 325887 325237 324403 323369 322180 320988 320038 319566
3197.8804 319679 320291 321160 322017 322689 323143 323445 323668 323825
3202.2192 323878 323789 323566 323281 323034 322912 322954 323128 323323
3206.5583 323363 323046 322238 320970 319494 318227 317580 317740 318533
3210.8975 319467 319966 319656 318566 317112 315872 315298 315518 316329
3215.2366 317344 318183 318601 318513 317967 317109 316159 315385 315029
3219.5754 315217 315892 316838 317787 318544 319058 319399 319668 319904
3223.9146 320050 319997 319660 319043 318249 317428 316703 316119 315648
3228.2537 315239 314879 314606 314474 314493 314612 314768 314955 315258
3232.5928 315788 316567 317441 318117 318321 317977 317271 316556 316147
3236.9316 316147 316412 316667 316678 316384 315913 315492 315324 315467
3241.2708 315779 315951 315614 314535 312781 310789 309232 308736 309576
3245.6099 311536 314014 316314 317947 318777 318962 318781 318480 318205
3249.9490 318003 317833 317555 316968 315907 314395 312733 311411 310877
3254.2878 311275 312355 313619 314607 315133 315313 315398 315561 315797
3258.6270 315978 316009 315919 315846 315920 316168 316491 316741 316820
3262.9661 316736 316584 316482 316501 316638 316836 317029 317175 317253
3267.3052 317252 317169 317029 316910 316923 317124 317421 317550 317189
3271.6440 316172 314653 313082 311972 311598 311851 312342 312702 312833
3275.9832 312935 313301 314048 315011 315869 316395 316607 316727 316974
3280.3223 317392 317823 318054 317996 317759 317589 317713 318212 318994
3284.6614 319840 320494 320751 320516 319840 318913 317997 317306 316912
3289.0002 316707 316491 316105 315542 314962 314599 314633 315115 315968
3293.3394 317041 318166 319173 319909 320260 320206 319855 319421 319133
3297.6785 319131 319403 319812 320179 320377 320370 320192 319914 319603
3302.0176 319319 319115 319044 319146 319428 319834 320237 320451 320283
3306.3564 319622 318518 317214 316079 315468 315562 316272 317271 318137
3310.6956 318544 318402 317885 317333 317092 317358 318100 319097 320050
3315.0347 320721 321025 321034 320912 320820 320844 320980 321168 321337
3319.3738 321444 321474 321420 321267 320993 320589 320088 319568 319134
3323.7126 318875 318822 318940 319154 319394 319625 319853 320094 320347
3328.0518 320583 320771 320909 321031 321177 321345 321468 321428 321126
3332.3909 320544 319748 318849 317925 316999 316075 315229 314653 314603
3336.7300 315263 316595 318300 319921 321037 321449 321242 320706 320178
3341.0688 319903 319966 320307 320785 321241 321549 321637 321500 321184
3345.4080 320757 320282 319798 319330 318918 318630 318552 318744 319197
3349.7471 319814 320443 320930 321179 321174 320947 320527 319912 319084
3354.0862 318071 316999 316080 315530 315453 315778 316296 316762 317014
3358.4250 317012 316800 316445 316002 315537 315142 314908 314848 314838
3362.7642 314653 314093 313138 311990 310988 310426 310404 310817 311463
3367.1033 312190 312959 313809 314759 315748 316640 317300 317661 317742
3371.4424 317608 317327 316945 316495 316029 315617 315331 315203 315202
3375.7813 315244 315233 315115 314916 314731 314679 314847 315240 315770
3380.1204 316278 316577 316504 315958 314943 313574 312066 310693 309717
3384.4595 309318 309544 310287 311308 312313 313047 313397 313423 313302
3388.7986 313186 313051 312658 311671 309914 307592 305330 303939 304011
3393.1375 305565 307954 310126 311105 310450 308461 306005 304099 303439
3397.4766 304136 305751 307588 309053 309888 310180 310196 310165 310163
3401.8157 310141 310038 309871 309737 309729 309851 309999 310027 309843
3406.1548 309472 309043 308717 308604 308716 308969 309228 309366 309312
3410.4937 309072 308723 308374 308133 308062 308162 308364 308559 308646
3414.8328 308577 308388 308153 307886 307451 306538 304797 302060 298539
3419.1719 294856 291843 290206 290239 291730 294116 296766 299219 301269
3423.5110 302894 304117 304919 305243 305076 304521 303799 303170 302810
3427.8499 302729 302777 302743 302481 301987 301389 300863 300538 300455
3432.1890 300574 300816 301099 301348 301506 301544 301473 301333 301167
3436.5281 301008 300880 300813 300837 300925 300924 300544 299457 297496
3440.8672 294844 292085 290030 289372 290292 292220 293921 293941 291288
3445.2061 286029 279487 273813 271096 272413 277347 284226 290957 295960
3449.5452 298700 299609 299560 299313 299216 299255 299266 299123 298799
3453.8843 298331 297785 297236 296755 296386 296123 295914 295703 295464
3458.2234 295197 294863 294339 293441 292039 290202 288272 286787 286264
3462.5623 286933 288572 290542 292040 292457 291671 290105 288529 287688
3466.9014 287967 289250 291031 292695 293804 294252 294235 294069 293981
3471.2405 293966 293793 293159 291894 290123 288275 286916 286493 287125
3475.5796 288533 290174 291482 292080 291864 290903 289270 286929 283798
3479.9185 279962 275887 272421 270520 270787 273132 276768 280578 283608
3484.2576 285389 285918 285416 284108 282224 280148 278497 277945 278875
3488.5967 281102 283911 286429 288070 288774 288884 288820 288765 288578
3492.9358 287932 286540 284353 281633 278923 276898 276147 276918 278963
3497.2747 281584 283894 285164 285030 283461 280536 276275 270701 264124
3501.6138 257381 251795 248731 249020 252578 258485 265420 272135 277675
3505.9529 281299 282370 280464 275741 269255 262856 258549 257622 260074
3510.2920 264707 269832 274118 277093 279060 280615 282159 283698 284971
3514.6309 285707 285790 285250 284167 282618 280735 278804 277276 276574
3518.9700 276773 277330 277123 274890 269925 262632 254572 247874 244272
3523.3091 244286 247003 250561 253050 253337 251421 248237 245110 243185
3527.6482 243079 244826 248035 252131 256562 260923 265005 268766 272242
3531.9871 275402 277980 279416 279014 276321 271567 265870 260973 258542
3536.3262 259396 263091 268165 272875 276002 277264 277147 276368 275327
3540.6653 273881 271488 267564 261839 254523 246269 237980 230559 224703
3545.0044 220825 219118 219701 222698 228166 235834 244822 253562 260087
3549.3433 262671 260552 254378 246108 238376 233581 233095 236899 243734
3553.6824 251638 258663 263506 265857 266308 265861 265258 264524 263047
3558.0215 260170 255872 251024 246953 244610 243962 244062 243712 242137
3562.3606 239143 234689 228354 219288 206802 191191 174178 158627 147662
3566.6997 143694 147735 159184 176022 195335 214063 229814 241413 248928
3571.0386 253175 255045 255122 253759 251407 248766 246572 245221 244610
3575.3777 244362 244211 244156 244257 244310 243845 242522 240608 238996
3579.7168 238628 239723 241489 242622 242237 240437 237994 235356 231835
3584.0559 225712 215339 200470 182864 165743 152492 145484 145637 152658
3588.3948 165422 182072 199917 215649 226182 229816 226965 219853 211285
3592.7339 203346 196863 191858 188397 186995 188257 192135 197545 202730
3597.0730 206099 206923 205456 202578 199351 196767 195650 196561 199633
3601.4121 204532 210598 217077 223176 227913 230017 228231 221959 211797
3605.7510 199423 186852 175644 166711 160776 158793 161634 169049 178815
3610.0901 187097 190163 186445 177508 167222 159720 157503 160725 167717
3614.4292 176016 183167 187094 186355 180489 170354 158089 146550 138456
3618.7683 135645 138752 147251 159716 174152 188408 200639 209658 215059
3623.1072 217057 216204 213126 208294 201779 193019 180891 164336 143471
3627.4463 120580 100181 87761 87585 100640 123850 151031 175172 191017 196829
3632.2676 194681 189235 185609 187222 194537 205209 215480 222117 223872
3636.6064 221817 218489 216437 216989 219802 223292 225568 225366 222601
3640.9456 218365 214436 212500 213325 216187 218826 218076 211058 196521
3645.2847 175672 151971 129822 112705 101765 95657 91803 88302 85319 85102
3650.1057 90657 103941 124638 150071 176039 197971 211933 215449 208270 192939
3654.9270 174653 159927 154256 159812 174510 193126 209918 221224 226607
3659.2661 228119 228471 229436 231329 233518 235259 236181 236305 235848
3663.6050 235087 234282 233489 232238 229366 223283 212674 197230 177948
3667.9441 156852 136477 119494 108568 106068 113263 129142 149623 168050
3672.2832 177261 172477 153608 125730 97372 77372 71640 81171 102027 127199
3677.1042 149548 164566 171779 174226 176374 181656 190934 202536 213560
3681.4434 221466 225095 224817 222087 218766 216334 215085 213595 209005
3685.7825 198409 180827 158508 136415 119884 111837 111451 115219 119646
3690.1216 123604 128696 137512 151227 168337 185355 198781 206890 210207
3694.4604 210642 210157 209895 210160 210917 212191 213995 215890 216645
3698.7996 214436 207691 196228 181998 168825 161024 161439 169958 183401
3703.1387 197011 206766 211187 211567 210510 209792 209001 205894 198198
3707.4778 185537 170028 155074 143220 134696 127802 120865 114249 110771
3711.8167 114033 125834 144571 165853 184905 199000 208219 214206 218128
3716.1558 219595 217360 211076 202466 194748 190582 190111 190663 188516
3720.4949 181544 170887 160440 154459 154893 160184 166257 168995 166590
3724.8340 160382 153890 150814 153291 161233 172749 185019 195019 199981
3729.1729 197876 188143 172373 154251 138294 127756 122915 120982 117926
3733.5120 111129 101128 91292 85729 86976 94989 107821 123074 138845 153659
3738.3333 166025 174503 178508 179015 178116 177332 175886 170555 157719
3742.6721 136480 110631 87852 76291 80434 98670 123868 146546 158912 157837
3747.4934 145550 128000 111827 101387 97247 96833 96828 95890 95945 101126
3752.3145 114887 137152 163445 186798 201355 205427 202032 196586 193337
3756.6536 192925 192665 189236 181776 173144 168458 171949 184339 202448
3760.9927 221098 235778 244253 246373 242854 234455 222309 208873 198123
3765.3318 194176 198866 209945 221491 226682 221493 207103 189526 176637
3769.6707 174327 183896 201972 222691 240659 253036 259853 262872 264059
3774.0098 264650 265079 265308 264955 263122 258338 249151 235305 218748
3778.3489 203557 194475 194725 204395 220316 237467 251012 257912 257531
3782.6880 251335 242137 233238 227585 226986 231596 239935 249550 258045
3787.0269 263969 267137 268338 268695 269079 269823 270765 271521 271833
3791.3660 271779 271679 271644 271026 268218 261182 248642 231335 212471
3795.7051 196884 189082 191069 201029 213629 221897 219975 205585 181151
3800.0442 153057 129345 116851 118998 135015 160581 189265 214106 229084
3804.3831 230576 218692 197916 176188 162222 161981 176157 200135 226507
3808.7222 248613 263060 270086 272136 271986 271509 271258 270442 266998
3813.0613 258068 241283 216629 187783 161659 145845 145069 158637 180329
3817.4004 200852 211541 207589 189552 162844 135686 116364 110646 120164
3821.7393 142212 170980 199645 222457 236084 239945 235789 226914 217334
3826.0784 210932 210586 217294 229578 243538 253895 255966 247920 232137
3830.4175 214585 202050 198526 202956 209979 213390 210024 201307 191431
3834.7566 183717 178128 171894 162524 150515 139406 133227 133632 139148
3839.0955 146947 155306 164441 175150 186802 196842 202503 203292 202029
3843.4346 203372 210878 224753 241821 257481 268128 272497 271461 266857
3847.7737 260271 252360 242797 230631 214848 194928 171246 145201 119143 96184
3852.5947 79889 73632 79508 97107 122934 151225 176177 194500 206735 216351
3857.4160 227053 239981 252668 260472 259587 249668 234344 219257 208838
3861.7551 203874 201392 196985 188134 176412 167097 166281 177122 197425
3866.0940 220001 235632 237125 222439 195599 165178 141159 131368 138638
3870.4331 159683 186214 208199 218137 214430 202031 189812 185992 194198
3874.7722 212344 234624 254916 269217 275885 274393 264381 246162 222151
3879.1113 197549 179056 172019 177827 193260 212102 227807 235653 233647
3883.4502 222499 205323 187184 174097 171220 180809 201032 226486 250193
3887.7893 265996 270262 262473 245029 222633 201328 186987 183446 191051
3892.1284 206553 224694 240702 252267 259852 265272 269615 271960 269755
3896.4675 260605 244280 223566 203328 188218 180428 178822 179975 180369
3900.8064 178285 174241 169945 166807 165204 164950 166311 170504 179127
3905.1455 192933 210945 230616 248915 263559 273667 279616 282475 283450
3909.4846 283562 283481 283455 283371 283012 282377 281747 281276 280367
3913.8237 277435 270565 258925 243978 229454 219729 217440 221893 229446
3918.1626 235740 238353 238095 238090 241328 248383 256805 262513 262182
3922.5017 255132 243696 232096 224606 223920 230313 241707 254491 264820
3926.8408 269989 269357 264360 257553 251173 246070 241646 236809 231217
3931.1799 225941 223054 224439 230630 240433 251522 261561 269125 273935
3935.5188 276448 277263 276808 275466 273834 272735 272785 273778 274405
3939.8579 272690 267053 257440 245796 235502 229981 231153 238530 249384
3944.1970 259903 266741 268258 264900 258644 251872 246315 242610 240585
3948.5361 239932 240699 243233 247665 253437 259321 264009 266834 268090
3952.8750 268702 269506 270700 271824 272233 271637 270317 268939 268142
3957.2141 268232 269081 270211 270957 270680 269030 266204 263015 260637
3961.5532 260080 261664 264846 268522 271631 273662 274749 275354 275804
3965.8923 276030 275666 274416 272382 270121 268372 267632 267865 268529
3970.2312 268907 268534 267442 266081 264984 264416 264254 264156 263886
3974.5703 263543 263525 264248 265843 268022 270221 271884 272727 272796
3978.9094 272347 271650 270873 270089 269366 268830 268633 268855 269427
3983.2485 270141 270752 271112 271239 271274 271368 271558 271716 271596
3987.5874 270955 269688 267919 266005 264436 263661 263903 265024 266542
3991.9265 267800 268239 267656 266308 264804 263819 263791 264730 266267
3996.2656 267860 269067 269713 269888 269813 269681 269560 269416 269184
##END= 
