##TITLE= STDFENAZONE
##JCAMP-DX= 4.24
##DATA TYPE= INFRARED SPECTRUM
##ORIGIN= JASCO
##OWNER= 
##DATE= 22/05/04
##TIME= 18:16:42
##SPECTROMETER/DATA SYSTEM= 
##RESOLUTION= 
##DELTAX=   0.48211674
##XUNITS= 1/CM
##YUNITS= TRANSMITTANCE
##XFACTOR= 1.00000
##YFACTOR= 0.0001
##FIRSTX=   599.7532
##LASTX=  4000.1226
##NPOINTS=     7054
##FIRSTY=      1.05981
##MAXY=      1.19582
##MINY=      0.35383
##XYDATA= (X++(Y..Y))
599.7532 10598 10410 10200 9983 9774 9583 9405 9223 9015 8766 8473 8152 7835
606.0208 7564 7378 7302 7331 7430 7545 7618 7609 7505 7318 7075 6803 6515 6218
612.7704 5917 5622 5351 5124 4965 4902 4968 5207 5656 6320 7151 8054 8922 9670
619.5200 10246 10632 10834 10882 10830 10747 10691 10695 10756 10843 10915
624.8233 10939 10897 10798 10658 10497 10329 10159 9992 9829 9670 9514 9357
630.6087 9194 9021 8836 8642 8443 8246 8059 7886 7728 7582 7442 7300 7156 7016
637.3583 6892 6803 6767 6801 6914 7102 7356 7660 7999 8363 8746 9138 9522 9870
644.1080 10151 10346 10455 10499 10508 10511 10523 10548 10579 10604 10611
649.4113 10594 10559 10524 10506 10517 10552 10590 10605 10577 10508 10416
654.7145 10332 10279 10266 10284 10314 10337 10338 10311 10259 10187 10107
660.0178 10033 9979 9952 9955 9975 9994 9994 9968 9923 9877 9846 9841 9864
666.2853 9917 10007 10141 10278 10262 10039 9810 9672 9616 9620 9670 9752 9844
672.5529 9923 9969 9977 9953 9910 9864 9823 9790 9762 9730 9686 9631 9571 9514
679.3025 9465 9423 9384 9344 9306 9277 9265 9271 9282 9279 9248 9186 9104 9022
686.0521 8952 8893 8832 8755 8656 8538 8410 8277 8134 7968 7762 7507 7204 6878
692.8018 6571 6340 6241 6309 6543 6902 7314 7698 7989 8154 8199 8158 8083 8028
699.5514 8043 8156 8374 8676 9019 9351 9631 9836 9960 10011 10000 9938 9837
705.8189 9713 9583 9457 9344 9241 9143 9039 8924 8792 8646 8491 8335 8185 8046
712.5685 7916 7786 7639 7464 7253 7012 6756 6500 6254 6020 5796 5579 5376 5206
719.3182 5100 5094 5217 5474 5845 6291 6765 7223 7627 7955 8203 8381 8511 8608
726.0678 8681 8734 8766 8778 8765 8720 8637 8523 8395 8274 8175 8092 8004 7887
732.8174 7732 7546 7350 7160 6979 6803 6631 6481 6384 6372 6464 6656 6926 7248
739.5671 7605 7989 8392 8805 9213 9607 9983 10345 10690 11006 11271 11468
745.3525 11597 11676 11729 11775 11820 11860 11894 11921 11944 11958 11946
750.6558 11881 11744 11539 11294 11058 10872 10756 10697 10660 10609 10519
755.9590 10393 10249 10107 9975 9845 9703 9541 9362 9180 9009 8854 8708 8558
762.2266 8387 8183 7944 7678 7398 7119 6850 6592 6339 6082 5812 5529 5236 4942
768.9762 4660 4408 4205 4075 4041 4120 4320 4640 5068 5584 6162 6773 7388 7977
775.7258 8518 8992 9389 9707 9952 10136 10276 10384 10470 10539 10588 10618
781.5112 10629 10625 10615 10606 10599 10592 10577 10551 10514 10470 10427
786.8145 10390 10359 10328 10290 10242 10185 10124 10066 10012 9963 9915 9865
792.5999 9810 9746 9672 9588 9496 9401 9309 9221 9137 9057 8977 8898 8818 8738
799.3495 8654 8566 8471 8371 8268 8163 8058 7952 7845 7733 7617 7495 7364 7224
806.0992 7076 6924 6769 6616 6463 6309 6154 5998 5848 5710 5593 5498 5425 5368
812.8488 5321 5282 5254 5241 5250 5284 5343 5423 5520 5635 5767 5918 6090 6282
819.5984 6490 6709 6935 7164 7393 7621 7845 8065 8279 8487 8689 8889 9088 9283
826.3481 9470 9642 9792 9911 9996 10041 10044 10008 9939 9850 9752 9659 9579
832.6156 9512 9456 9408 9365 9329 9303 9287 9278 9271 9257 9234 9202 9167 9135
839.3652 9110 9092 9077 9062 9041 9015 8980 8935 8881 8820 8759 8703 8655 8615
846.1149 8575 8526 8459 8372 8262 8132 7983 7820 7651 7484 7333 7210 7131 7107
852.8645 7147 7253 7424 7647 7910 8195 8486 8766 9021 9241 9419 9556 9659 9736
859.6141 9798 9849 9892 9928 9958 9984 10006 10025 10040 10051 10056 10058
865.3995 10058 10056 10053 10047 10039 10030 10024 10022 10023 10023 10020
870.7028 10012 10001 9990 9980 9974 9968 9961 9951 9939 9926 9913 9904 9897
876.9703 9892 9886 9880 9871 9860 9851 9846 9846 9851 9857 9861 9859 9852 9845
883.7200 9841 9842 9849 9857 9860 9854 9841 9825 9809 9797 9790 9786 9784 9781
890.4696 9777 9772 9767 9760 9753 9747 9741 9738 9737 9740 9744 9749 9752 9752
897.2192 9746 9734 9717 9701 9689 9684 9685 9686 9683 9673 9658 9644 9636 9636
903.9689 9642 9648 9649 9642 9626 9606 9585 9568 9553 9537 9516 9485 9440 9379
910.7185 9303 9211 9103 8981 8851 8726 8624 8563 8554 8597 8677 8775 8870 8953
917.4681 9023 9090 9164 9251 9349 9452 9549 9634 9701 9752 9787 9812 9829 9841
924.2178 9850 9856 9858 9858 9856 9856 9860 9867 9878 9890 9901 9910 9918 9924
930.9674 9930 9939 9951 9967 9986 10007 10028 10049 10067 10083 10092 10090
936.7528 10073 10040 9993 9939 9886 9837 9797 9762 9730 9700 9674 9653 9639
943.0203 9631 9627 9622 9616 9606 9595 9584 9575 9567 9557 9546 9533 9520 9510
949.7700 9505 9503 9504 9503 9500 9494 9485 9474 9462 9448 9434 9419 9405 9394
956.5196 9387 9383 9381 9377 9372 9365 9359 9355 9355 9356 9357 9355 9353 9352
963.2692 9355 9362 9374 9387 9400 9411 9422 9432 9441 9449 9452 9448 9437 9419
970.0189 9398 9376 9355 9336 9318 9295 9267 9229 9181 9126 9069 9017 8976 8949
976.7685 8936 8932 8931 8926 8908 8875 8825 8758 8678 8590 8496 8397 8292 8177
983.5181 8050 7913 7773 7645 7547 7500 7515 7597 7738 7921 8125 8326 8506 8650
990.2678 8753 8813 8832 8815 8769 8700 8615 8526 8441 8372 8326 8310 8322 8357
997.0174 8407 8460 8506 8539 8554 8553 8538 8516 8493 8479 8481 8505 8556 8632
1003.7670 8729 8836 8942 9035 9108 9158 9192 9214 9233 9253 9274 9293 9309
1010.0345 9319 9323 9321 9313 9302 9286 9266 9243 9215 9184 9149 9114 9079
1016.3021 9046 9014 8977 8933 8876 8804 8715 8611 8492 8360 8218 8069 7920
1022.5696 7786 7685 7640 7671 7793 8008 8302 8650 9018 9371 9677 9911 10057
1028.8372 10103 10048 9903 9684 9418 9132 8854 8605 8397 8239 8133 8081 8078
1035.1046 8119 8195 8294 8400 8501 8583 8639 8669 8673 8655 8620 8571 8513
1041.3722 8450 8383 8313 8239 8159 8071 7975 7875 7772 7667 7561 7452 7339
1047.6396 7225 7110 6998 6891 6790 6698 6616 6550 6503 6483 6497 6551 6650
1053.9072 6797 6988 7215 7464 7722 7977 8218 8438 8632 8799 8937 9049 9141
1060.1747 9214 9272 9317 9350 9373 9390 9402 9412 9419 9419 9410 9393 9368
1066.4423 9337 9302 9263 9221 9175 9124 9067 9002 8930 8851 8764 8670 8568
1072.7097 8453 8323 8174 8006 7819 7619 7408 7192 6976 6767 6577 6419 6310
1078.9773 6269 6307 6430 6635 6907 7229 7578 7935 8281 8602 8886 9125 9316
1085.2448 9460 9566 9642 9697 9737 9764 9779 9781 9770 9746 9711 9664 9606
1091.5123 9535 9451 9356 9251 9137 9016 8889 8757 8623 8487 8354 8230 8122
1097.7798 8040 7993 7991 8038 8132 8268 8434 8617 8804 8981 9141 9276 9387
1104.0474 9473 9537 9584 9615 9632 9637 9631 9617 9599 9582 9567 9554 9541
1110.3148 9524 9502 9477 9449 9421 9392 9364 9336 9313 9296 9288 9290 9296
1116.5824 9303 9307 9307 9305 9305 9307 9310 9309 9302 9287 9264 9236 9202
1122.8499 9160 9108 9044 8966 8874 8771 8658 8539 8415 8289 8163 8036 7908
1129.1174 7778 7645 7510 7375 7243 7118 7001 6896 6803 6725 6665 6630 6627
1135.3849 6663 6745 6876 7056 7282 7547 7839 8145 8450 8743 9013 9256 9470
1141.6525 9652 9804 9926 10018 10084 10128 10155 10170 10175 10172 10159 10135
1147.4379 10097 10045 9977 9892 9791 9669 9524 9350 9150 8933 8720 8545 8442
1153.7053 8441 8549 8753 9017 9295 9548 9749 9891 9979 10027 10043 10036 10010
1159.9729 9968 9915 9855 9792 9725 9652 9570 9477 9369 9247 9111 8966 8819
1166.2404 8684 8576 8505 8474 8476 8496 8514 8516 8490 8434 8351 8247 8128
1172.5079 8000 7868 7735 7604 7479 7367 7276 7217 7201 7234 7320 7456 7638
1178.7754 7856 8101 8362 8629 8893 9147 9384 9599 9791 9959 10104 10227 10332
1185.0430 10421 10496 10560 10611 10652 10682 10704 10718 10727 10733 10739
1190.3462 10744 10748 10751 10751 10751 10750 10748 10747 10746 10745 10744
1195.6495 10744 10746 10751 10759 10770 10785 10804 10829 10858 10892 10925
1200.9528 10952 10968 10965 10939 10889 10814 10719 10609 10491 10373 10263
1206.2561 10165 10082 10015 9961 9918 9882 9853 9830 9810 9795 9782 9771 9761
1212.5236 9749 9734 9715 9691 9664 9635 9603 9571 9537 9502 9463 9420 9373
1218.7911 9320 9262 9199 9134 9066 8999 8932 8864 8795 8725 8655 8591 8536
1225.0586 8493 8466 8453 8454 8469 8499 8543 8602 8674 8757 8849 8946 9047
1231.3262 9148 9247 9342 9433 9518 9597 9669 9733 9789 9835 9871 9896 9912
1237.5936 9921 9925 9926 9927 9927 9927 9925 9922 9916 9908 9898 9887 9876
1243.8612 9865 9854 9845 9839 9835 9834 9835 9837 9839 9841 9844 9849 9856
1250.1287 9866 9879 9893 9906 9918 9931 9944 9958 9975 9995 10016 10036 10056
1256.3962 10074 10091 10106 10118 10126 10131 10131 10128 10121 10108 10087
1261.6995 10056 10018 9974 9927 9878 9831 9789 9759 9748 9758 9780 9797 9788
1267.9670 9741 9663 9576 9503 9462 9457 9483 9527 9579 9628 9671 9704 9726
1274.2345 9736 9733 9719 9695 9662 9622 9575 9524 9469 9414 9358 9303 9247
1280.5021 9191 9135 9081 9026 8969 8912 8854 8797 8744 8695 8648 8601 8551
1286.7695 8496 8434 8364 8287 8202 8109 8010 7907 7806 7715 7640 7588 7559
1293.0371 7552 7558 7568 7575 7571 7553 7522 7479 7427 7367 7302 7231 7157
1299.3046 7081 7006 6932 6861 6790 6721 6653 6589 6531 6483 6448 6430 6435
1305.5721 6470 6544 6668 6850 7094 7393 7731 8085 8427 8729 8974 9149 9252
1311.8396 9284 9252 9168 9045 8897 8735 8565 8391 8215 8040 7869 7704 7545
1318.1072 7392 7242 7096 6957 6830 6720 6628 6555 6504 6475 6473 6499 6556
1324.3746 6643 6758 6900 7065 7249 7451 7664 7886 8111 8335 8556 8769 8972
1330.6422 9161 9333 9488 9626 9752 9866 9973 10074 10172 10270 10370 10472
1336.4276 10573 10670 10759 10841 10914 10978 11026 11050 11044 11010 10955
1341.7308 10887 10814 10740 10669 10604 10547 10499 10459 10427 10401 10380
1347.0342 10362 10348 10334 10321 10307 10294 10280 10266 10251 10234 10216
1352.3374 10195 10172 10147 10118 10085 10049 10011 9974 9937 9900 9862 9824
1358.1228 9787 9751 9717 9684 9652 9621 9589 9557 9521 9480 9434 9385 9333
1364.3904 9280 9225 9165 9100 9030 8957 8877 8790 8693 8587 8474 8359 8247
1370.6578 8140 8039 7948 7871 7813 7783 7792 7851 7960 8107 8279 8468 8677
1376.9254 8910 9170 9450 9737 10012 10262 10478 10656 10795 10893 10952 10973
1382.7108 10962 10924 10864 10788 10703 10615 10525 10430 10325 10207 10077
1388.0140 9946 9822 9704 9586 9462 9328 9185 9037 8893 8755 8625 8499 8373
1394.2816 8246 8122 8010 7919 7849 7800 7777 7793 7864 8001 8186 8384 8569
1400.5491 8739 8905 9072 9238 9393 9530 9645 9743 9824 9885 9918 9923 9903
1406.8167 9865 9811 9742 9655 9548 9421 9273 9105 8915 8704 8476 8239 8005
1413.0841 7783 7584 7416 7286 7205 7184 7224 7320 7454 7615 7806 8047 8350
1419.3517 8669 8924 9083 9171 9222 9257 9282 9295 9286 9247 9180 9096 9002
1425.6191 8900 8788 8667 8540 8413 8289 8165 8033 7890 7741 7599 7474 7365
1431.8867 7270 7187 7123 7083 7068 7074 7097 7137 7203 7301 7410 7494 7539
1438.1542 7562 7582 7610 7650 7704 7771 7845 7922 7996 8061 8113 8148 8163
1444.4218 8158 8137 8101 8052 7989 7903 7783 7623 7436 7239 7046 6857 6672
1450.6892 6499 6356 6267 6252 6309 6420 6566 6734 6920 7129 7373 7666 8013
1456.9568 8373 8668 8856 8962 9020 9055 9076 9086 9087 9079 9062 9040 9013
1463.2242 8983 8946 8898 8836 8767 8699 8634 8569 8497 8417 8329 8238 8151
1469.4918 8068 7989 7912 7833 7741 7623 7467 7298 7153 7041 6951 6864 6770
1475.7593 6664 6554 6460 6396 6358 6339 6330 6326 6322 6315 6301 6278 6243
1482.0269 6202 6162 6132 6123 6143 6196 6287 6430 6645 6950 7334 7742 8108
1488.2943 8404 8645 8871 9103 9317 9468 9544 9569 9568 9555 9536 9512 9483
1494.5619 9446 9394 9318 9219 9114 9023 8955 8910 8884 8879 8897 8936 8993
1500.8293 9066 9154 9252 9349 9437 9510 9570 9623 9673 9729 9796 9869 9923
1507.0969 9947 9963 9985 10013 10042 10068 10089 10107 10124 10141 10159 10178
1512.8823 10196 10210 10223 10235 10247 10259 10265 10261 10243 10221 10205
1518.1855 10199 10200 10202 10203 10199 10183 10153 10123 10106 10102 10104
1523.4889 10107 10109 10107 10100 10087 10070 10052 10036 10021 10008 9996
1528.7921 9986 9980 9977 9975 9973 9970 9965 9956 9942 9924 9907 9894 9886
1535.0597 9881 9877 9873 9868 9862 9856 9851 9848 9846 9846 9841 9834 9827
1541.3271 9821 9817 9811 9802 9790 9777 9765 9756 9752 9749 9745 9738 9727
1547.5947 9713 9698 9685 9677 9674 9673 9667 9654 9635 9615 9595 9576 9558
1553.8622 9538 9513 9485 9456 9427 9397 9365 9327 9281 9231 9194 9176 9146
1560.1298 9102 9055 9010 8969 8930 8892 8851 8806 8753 8687 8608 8521 8431
1566.3972 8344 8261 8182 8103 8017 7914 7791 7669 7573 7505 7453 7409 7365
1572.6648 7320 7274 7228 7183 7138 7090 7037 6981 6938 6919 6921 6941 6982
1578.9323 7045 7129 7229 7334 7433 7519 7585 7626 7642 7631 7598 7552 7503
1585.1998 7461 7435 7430 7447 7484 7531 7579 7618 7640 7642 7626 7600 7576
1591.4674 7565 7578 7623 7707 7832 7997 8196 8413 8633 8845 9044 9227 9394
1597.7349 9543 9672 9779 9867 9936 9989 10028 10056 10076 10091 10103 10114
1603.5203 10123 10132 10138 10141 10142 10140 10135 10127 10117 10102 10083
1608.8236 10059 10029 9994 9955 9916 9878 9841 9805 9768 9730 9690 9649 9608
1615.0911 9567 9525 9477 9420 9358 9296 9236 9173 9104 9027 8945 8863 8785
1621.3586 8713 8647 8585 8524 8467 8414 8367 8323 8282 8243 8207 8175 8146
1627.6261 8118 8090 8058 8024 7989 7952 7913 7871 7827 7782 7738 7696 7655
1633.8937 7612 7560 7493 7410 7328 7260 7198 7136 7070 7002 6936 6872 6810
1640.1611 6748 6684 6617 6545 6469 6391 6313 6238 6165 6092 6013 5920 5808
1646.4287 5678 5544 5417 5298 5189 5092 5006 4931 4864 4802 4741 4673 4577
1652.6962 4394 4119 3932 3859 3819 3782 3740 3696 3650 3605 3568 3543 3538
1658.9637 3556 3597 3656 3729 3817 3929 4084 4291 4523 4735 4905 5044 5178
1665.2312 5322 5475 5627 5764 5887 6011 6166 6379 6635 6876 7070 7236 7410
1671.4988 7601 7788 7947 8071 8175 8291 8466 8731 9045 9304 9466 9566 9646
1677.7662 9727 9819 9925 10045 10175 10300 10404 10477 10522 10548 10566 10597
1683.5516 10687 10877 11062 11137 11148 11144 11143 11148 11161 11182 11211
1688.8550 11244 11279 11312 11342 11369 11395 11420 11445 11467 11486 11501
1694.1582 11513 11527 11557 11609 11663 11683 11666 11629 11587 11545 11499
1699.4615 11429 11291 11099 10953 10865 10802 10745 10686 10623 10558 10494
1704.7648 10435 10385 10343 10308 10279 10257 10240 10226 10216 10208 10203
1710.0681 10201 10201 10201 10200 10198 10195 10193 10190 10187 10182 10174
1715.3713 10165 10155 10146 10138 10131 10123 10114 10104 10095 10088 10081
1720.6747 10074 10068 10062 10055 10048 10042 10038 10035 10035 10035 10036
1725.9779 10037 10039 10041 10043 10045 10046 10045 10041 10033 10022 10011
1731.2813 10002 9995 9989 9983 9978 9968 9954 9937 9923 9911 9901 9893 9887
1737.5487 9883 9880 9876 9869 9857 9843 9830 9820 9814 9809 9807 9805 9803
1743.8163 9798 9792 9784 9777 9772 9770 9771 9772 9772 9769 9762 9753 9743
1750.0837 9734 9726 9719 9712 9704 9696 9687 9676 9665 9655 9646 9639 9633
1756.3513 9626 9620 9612 9606 9603 9602 9604 9610 9619 9632 9647 9661 9669
1762.6188 9673 9675 9678 9683 9691 9700 9708 9713 9714 9710 9704 9698 9696
1768.8864 9697 9699 9700 9697 9689 9676 9660 9649 9647 9650 9652 9652 9650
1775.1538 9649 9648 9651 9655 9660 9664 9669 9672 9676 9679 9682 9685 9688
1781.4214 9693 9698 9704 9709 9714 9719 9722 9723 9724 9723 9723 9723 9724
1787.6888 9727 9732 9739 9746 9753 9759 9765 9768 9767 9760 9749 9738 9729
1793.9564 9725 9723 9724 9728 9735 9742 9749 9755 9760 9764 9767 9769 9769
1800.2239 9766 9762 9758 9757 9759 9765 9770 9773 9772 9768 9762 9757 9752
1806.4915 9749 9747 9744 9741 9735 9727 9718 9707 9696 9686 9678 9672 9668
1812.7589 9665 9663 9662 9660 9658 9657 9657 9661 9668 9678 9690 9701 9709
1819.0265 9714 9716 9717 9720 9724 9731 9738 9745 9750 9752 9753 9753 9755
1825.2939 9758 9760 9761 9761 9760 9760 9762 9767 9775 9782 9782 9774 9762
1831.5615 9748 9735 9725 9720 9718 9720 9724 9730 9736 9743 9751 9758 9764
1837.8290 9767 9766 9763 9758 9753 9751 9751 9754 9758 9762 9763 9764 9762
1844.0966 9759 9757 9755 9754 9754 9754 9752 9750 9746 9742 9740 9740 9742
1850.3640 9744 9746 9748 9749 9751 9752 9754 9757 9759 9760 9760 9759 9757
1856.6316 9757 9759 9761 9763 9763 9761 9758 9756 9757 9761 9768 9775 9780
1862.8990 9781 9777 9769 9758 9746 9737 9735 9741 9753 9767 9779 9787 9788
1869.1666 9786 9783 9781 9779 9776 9770 9764 9757 9753 9753 9758 9765 9770
1875.4341 9771 9766 9758 9750 9744 9740 9737 9732 9726 9718 9711 9706 9704
1881.7017 9702 9697 9687 9673 9657 9641 9627 9617 9611 9606 9603 9602 9601
1887.9691 9601 9601 9601 9599 9598 9601 9608 9620 9634 9647 9657 9664 9670
1894.2367 9677 9689 9704 9722 9738 9750 9757 9762 9764 9766 9770 9778 9790
1900.5042 9804 9818 9826 9825 9817 9803 9792 9786 9787 9790 9791 9786 9774
1906.7717 9760 9751 9752 9762 9778 9793 9801 9803 9801 9799 9798 9798 9797
1913.0392 9793 9788 9781 9775 9770 9764 9756 9746 9734 9727 9727 9738 9755
1919.3068 9774 9790 9803 9813 9822 9829 9833 9832 9825 9814 9803 9796 9795
1925.5742 9799 9808 9817 9826 9832 9835 9835 9835 9833 9829 9825 9821 9820
1931.8418 9823 9830 9838 9844 9842 9828 9804 9774 9749 9736 9739 9754 9775
1938.1093 9792 9799 9793 9777 9759 9744 9735 9736 9748 9767 9787 9800 9803
1944.3768 9796 9781 9761 9739 9717 9697 9684 9677 9675 9676 9677 9677 9676
1950.6443 9678 9684 9697 9714 9734 9755 9774 9789 9795 9789 9772 9750 9731
1956.9119 9721 9720 9727 9733 9734 9726 9710 9685 9654 9622 9596 9584 9592
1963.1793 9618 9652 9680 9688 9668 9623 9566 9515 9485 9483 9500 9523 9538
1969.4469 9537 9525 9510 9505 9518 9552 9598 9645 9680 9692 9680 9647 9603
1975.7144 9557 9519 9497 9496 9518 9558 9605 9646 9673 9685 9687 9687 9691
1981.9819 9698 9707 9713 9713 9705 9695 9685 9681 9687 9701 9717 9728 9721
1988.2494 9694 9649 9599 9559 9538 9539 9555 9576 9590 9593 9593 9599 9620
1994.5170 9657 9705 9755 9792 9808 9800 9773 9738 9706 9686 9683 9690 9699
2000.7844 9698 9681 9648 9609 9578 9568 9586 9628 9682 9731 9764 9777 9776
2007.0520 9767 9753 9735 9711 9685 9663 9649 9644 9646 9652 9663 9687 9724
2013.3195 9769 9805 9817 9799 9754 9700 9652 9623 9613 9616 9623 9626 9622
2019.5870 9612 9601 9596 9602 9617 9637 9651 9651 9636 9608 9577 9552 9539
2025.8545 9541 9559 9586 9611 9624 9618 9596 9570 9551 9549 9563 9583 9595
2032.1221 9591 9568 9535 9500 9479 9479 9506 9556 9619 9676 9712 9717 9689
2038.3895 9641 9588 9546 9525 9531 9563 9614 9670 9717 9744 9744 9719 9681
2044.6571 9646 9628 9634 9660 9697 9731 9754 9765 9767 9762 9754 9741 9725
2050.9246 9712 9705 9708 9719 9730 9734 9729 9719 9712 9713 9723 9734 9739
2057.1921 9733 9718 9702 9692 9692 9701 9714 9725 9733 9734 9729 9721 9710
2063.4597 9702 9700 9709 9727 9752 9777 9798 9811 9815 9814 9812 9813 9821
2069.7271 9834 9849 9856 9848 9824 9787 9748 9716 9698 9694 9700 9708 9713
2075.9946 9711 9706 9700 9698 9700 9706 9712 9717 9719 9720 9719 9718 9717
2082.2622 9719 9727 9740 9757 9772 9780 9776 9763 9748 9738 9741 9754 9769
2088.5298 9777 9772 9756 9738 9728 9733 9749 9768 9778 9775 9762 9748 9742
2094.7971 9748 9763 9781 9793 9796 9793 9786 9779 9775 9771 9768 9765 9762
2101.0647 9758 9756 9755 9759 9768 9782 9799 9814 9822 9823 9819 9817 9820
2107.3323 9827 9833 9831 9819 9800 9782 9770 9768 9772 9778 9781 9782 9779
2113.5999 9776 9770 9763 9753 9742 9734 9731 9736 9747 9763 9780 9794 9804
2119.8672 9806 9801 9792 9781 9772 9766 9763 9758 9751 9739 9724 9710 9701
2126.1348 9703 9715 9737 9762 9783 9794 9793 9782 9765 9748 9731 9716 9701
2132.4023 9686 9670 9656 9640 9624 9607 9597 9601 9627 9671 9725 9772 9799
2138.6699 9803 9789 9771 9757 9753 9758 9769 9782 9792 9795 9787 9766 9735
2144.9373 9701 9678 9677 9705 9754 9812 9859 9880 9870 9833 9785 9740 9712
2151.2048 9709 9726 9755 9782 9793 9781 9747 9702 9661 9638 9640 9667 9711
2157.4724 9768 9831 9895 9949 9983 9987 9966 9929 9893 9867 9856 9853 9850
2163.7400 9839 9815 9778 9729 9675 9624 9585 9564 9562 9575 9593 9608 9619
2170.0073 9629 9644 9667 9691 9705 9696 9663 9619 9583 9573 9597 9644 9690
2176.2749 9713 9702 9662 9615 9581 9577 9603 9647 9692 9722 9732 9724 9709
2182.5425 9696 9688 9682 9673 9654 9627 9597 9575 9569 9582 9612 9652 9693
2188.8101 9725 9741 9737 9714 9677 9635 9600 9583 9589 9617 9659 9701 9732
2195.0774 9741 9724 9685 9634 9581 9539 9514 9509 9524 9557 9603 9659 9716
2201.3450 9762 9785 9780 9748 9699 9650 9614 9602 9614 9642 9676 9705 9719
2207.6125 9716 9698 9673 9649 9632 9623 9618 9611 9598 9583 9572 9573 9590
2213.8801 9616 9638 9644 9629 9600 9567 9541 9528 9529 9543 9569 9605 9645
2220.1475 9683 9707 9711 9696 9668 9637 9611 9593 9582 9574 9571 9572 9581
2226.4150 9597 9615 9630 9637 9635 9624 9609 9593 9576 9562 9551 9546 9550
2232.6826 9561 9578 9597 9614 9627 9635 9640 9641 9640 9639 9638 9638 9634
2238.9502 9624 9603 9576 9548 9529 9525 9537 9561 9590 9620 9648 9671 9687
2245.2175 9694 9689 9677 9664 9659 9665 9681 9700 9714 9717 9710 9698 9686
2251.4851 9679 9677 9679 9682 9685 9685 9682 9676 9668 9658 9648 9640 9636
2257.7527 9637 9644 9653 9662 9667 9670 9672 9680 9695 9715 9735 9748 9749
2264.0203 9738 9717 9694 9674 9660 9653 9652 9656 9664 9676 9688 9698 9704
2270.2876 9704 9699 9690 9682 9677 9677 9681 9688 9696 9701 9703 9700 9693
2276.5552 9685 9678 9674 9676 9683 9693 9702 9708 9710 9706 9697 9685 9671
2282.8228 9660 9653 9654 9660 9671 9682 9689 9692 9690 9685 9680 9675 9672
2289.0903 9672 9674 9680 9687 9693 9695 9692 9683 9672 9661 9653 9650 9650
2295.3577 9651 9653 9655 9658 9663 9670 9679 9687 9693 9694 9693 9689 9684
2301.6252 9679 9673 9666 9659 9653 9651 9655 9662 9671 9679 9683 9683 9679
2307.8928 9673 9666 9661 9656 9652 9649 9648 9650 9654 9660 9663 9661 9654
2314.1604 9643 9631 9623 9621 9624 9628 9633 9634 9634 9634 9636 9640 9643
2320.4277 9644 9640 9633 9624 9614 9605 9597 9592 9590 9590 9594 9599 9605
2326.6953 9609 9608 9604 9595 9586 9578 9577 9583 9597 9614 9631 9641 9643
2332.9629 9639 9631 9626 9625 9628 9633 9636 9636 9632 9626 9621 9619 9619
2339.2305 9618 9614 9605 9592 9579 9570 9570 9579 9593 9607 9615 9618 9618
2345.4978 9622 9629 9641 9651 9659 9662 9662 9660 9656 9649 9637 9620 9598
2351.7654 9577 9561 9555 9560 9575 9593 9608 9614 9607 9589 9567 9548 9540
2358.0330 9543 9552 9557 9550 9528 9497 9465 9443 9437 9445 9462 9482 9502
2364.3005 9520 9536 9549 9558 9565 9570 9576 9585 9599 9617 9637 9656 9669
2370.5679 9674 9671 9662 9651 9642 9638 9640 9647 9654 9660 9663 9664 9666
2376.8354 9672 9683 9697 9711 9724 9733 9739 9743 9744 9746 9746 9746 9746
2383.1030 9745 9744 9744 9745 9748 9752 9755 9756 9754 9751 9747 9743 9742
2389.3706 9742 9744 9746 9749 9750 9751 9752 9752 9751 9750 9748 9745 9741
2395.6379 9737 9734 9733 9734 9736 9738 9737 9733 9726 9718 9711 9707 9707
2401.9055 9709 9712 9713 9711 9708 9704 9702 9701 9703 9707 9713 9721 9730
2408.1731 9738 9743 9745 9744 9740 9735 9729 9724 9719 9715 9712 9711 9711
2414.4407 9714 9719 9727 9736 9743 9748 9750 9750 9749 9749 9751 9753 9755
2420.7080 9757 9757 9758 9758 9758 9756 9753 9748 9744 9742 9742 9744 9748
2426.9756 9752 9755 9756 9755 9753 9751 9750 9751 9752 9756 9760 9765 9770
2433.2432 9774 9777 9777 9775 9771 9768 9765 9764 9763 9762 9760 9758 9755
2439.5107 9754 9755 9757 9761 9767 9772 9778 9782 9784 9786 9786 9786 9785
2445.7781 9782 9778 9774 9770 9766 9764 9764 9765 9768 9774 9781 9788 9794
2452.0457 9797 9798 9798 9796 9794 9791 9788 9783 9778 9774 9772 9773 9777
2458.3132 9783 9788 9793 9794 9793 9791 9790 9791 9796 9803 9811 9817 9820
2464.5808 9820 9819 9816 9812 9808 9803 9797 9793 9789 9787 9786 9785 9785
2470.8481 9785 9787 9791 9795 9799 9800 9796 9790 9783 9777 9774 9774 9778
2477.1157 9783 9788 9794 9799 9805 9810 9813 9813 9809 9803 9797 9793 9792
2483.3833 9794 9797 9801 9804 9808 9811 9813 9811 9806 9799 9791 9786 9785
2489.6509 9787 9791 9795 9799 9802 9805 9808 9810 9810 9808 9806 9805 9806
2495.9182 9807 9808 9806 9802 9795 9787 9782 9781 9784 9790 9797 9803 9804
2502.1858 9803 9800 9798 9800 9804 9809 9812 9809 9802 9791 9782 9778 9780
2508.4534 9786 9796 9804 9809 9813 9814 9816 9819 9823 9826 9829 9830 9828
2514.7209 9824 9819 9814 9811 9810 9811 9814 9817 9819 9821 9821 9821 9822
2520.9883 9824 9825 9826 9824 9819 9813 9809 9808 9811 9818 9827 9832 9833
2527.2559 9829 9821 9814 9809 9809 9813 9819 9825 9828 9827 9823 9817 9810
2533.5234 9805 9802 9804 9810 9820 9832 9843 9849 9850 9846 9840 9833 9827
2539.7910 9824 9823 9823 9821 9819 9817 9815 9814 9815 9817 9818 9818 9814
2546.0583 9808 9801 9796 9794 9795 9798 9799 9799 9798 9797 9797 9798 9798
2552.3259 9796 9791 9785 9780 9778 9779 9784 9791 9798 9804 9806 9804 9799
2558.5935 9792 9785 9780 9779 9779 9780 9779 9777 9773 9770 9769 9771 9776
2564.8611 9783 9787 9788 9786 9781 9777 9776 9777 9781 9786 9791 9795 9795
2571.1284 9793 9788 9783 9778 9777 9779 9782 9784 9783 9780 9776 9772 9771
2577.3960 9773 9775 9777 9778 9777 9775 9773 9771 9769 9768 9768 9769 9771
2583.6636 9774 9779 9783 9785 9786 9784 9781 9780 9782 9786 9792 9797 9801
2589.9312 9803 9803 9803 9802 9801 9800 9797 9795 9793 9793 9796 9801 9805
2596.1987 9807 9807 9804 9802 9801 9802 9805 9808 9808 9805 9800 9796 9793
2602.4661 9793 9796 9799 9803 9806 9808 9807 9804 9800 9797 9796 9798 9802
2608.7336 9806 9808 9808 9804 9799 9794 9790 9787 9787 9791 9797 9805 9812
2615.0012 9817 9818 9816 9811 9805 9801 9798 9797 9798 9799 9801 9802 9804
2621.2688 9806 9807 9808 9809 9810 9810 9809 9808 9807 9807 9808 9809 9810
2627.5361 9810 9810 9809 9810 9810 9811 9810 9809 9807 9805 9803 9803 9804
2633.8037 9807 9810 9814 9818 9822 9824 9824 9822 9818 9814 9811 9808 9807
2640.0713 9805 9804 9803 9802 9802 9802 9803 9804 9804 9804 9803 9801 9800
2646.3389 9799 9799 9800 9803 9806 9809 9812 9814 9814 9812 9808 9805 9803
2652.6062 9803 9805 9807 9810 9811 9812 9812 9812 9814 9816 9818 9820 9820
2658.8738 9818 9816 9815 9815 9815 9816 9816 9815 9813 9812 9811 9812 9815
2665.1414 9819 9822 9824 9824 9823 9822 9821 9821 9821 9822 9823 9823 9824
2671.4089 9826 9828 9830 9832 9833 9832 9831 9830 9830 9830 9831 9832 9833
2677.6763 9833 9832 9832 9833 9834 9837 9839 9841 9842 9842 9842 9843 9844
2683.9438 9845 9844 9842 9839 9836 9835 9837 9841 9845 9850 9853 9855 9856
2690.2114 9857 9859 9860 9862 9863 9863 9863 9862 9861 9860 9860 9861 9862
2696.4790 9863 9864 9865 9864 9861 9859 9857 9858 9860 9864 9868 9872 9875
2702.7463 9877 9877 9876 9874 9871 9868 9867 9867 9869 9872 9876 9880 9883
2709.0139 9884 9884 9883 9880 9878 9876 9877 9881 9885 9890 9894 9895 9895
2715.2815 9893 9892 9890 9890 9890 9892 9893 9894 9894 9893 9890 9888 9887
2721.5491 9888 9890 9892 9895 9896 9897 9898 9898 9898 9897 9897 9895 9894
2727.8164 9893 9893 9895 9898 9901 9903 9904 9903 9902 9900 9898 9896 9893
2734.0840 9890 9887 9883 9879 9876 9873 9870 9868 9866 9866 9865 9865 9864
2740.3516 9862 9860 9858 9857 9857 9856 9855 9854 9854 9854 9856 9859 9861
2746.6191 9863 9863 9862 9862 9862 9863 9864 9864 9864 9863 9864 9865 9868
2752.8865 9870 9871 9869 9867 9863 9861 9860 9859 9859 9858 9856 9855 9856
2759.1541 9859 9864 9871 9876 9880 9882 9883 9883 9884 9886 9889 9892 9895
2765.4216 9898 9901 9904 9907 9910 9912 9913 9913 9914 9915 9916 9918 9920
2771.6892 9922 9923 9924 9923 9923 9924 9926 9930 9934 9939 9943 9945 9947
2777.9565 9948 9949 9950 9951 9952 9954 9956 9958 9959 9960 9959 9956 9953
2784.2241 9951 9949 9948 9948 9949 9948 9946 9943 9939 9934 9928 9920 9913
2790.4917 9905 9899 9894 9891 9889 9889 9888 9888 9888 9886 9883 9878 9871
2796.7593 9863 9857 9851 9847 9843 9840 9837 9836 9835 9834 9833 9831 9827
2803.0266 9823 9818 9814 9811 9810 9809 9809 9809 9810 9811 9811 9810 9809
2809.2942 9808 9808 9809 9812 9814 9817 9817 9816 9814 9811 9808 9806 9806
2815.5618 9808 9811 9815 9819 9821 9822 9822 9821 9820 9819 9819 9820 9821
2821.8293 9822 9824 9826 9829 9831 9831 9831 9830 9829 9830 9831 9833 9834
2828.0967 9835 9837 9840 9844 9847 9848 9846 9842 9837 9833 9831 9831 9832
2834.3643 9832 9832 9831 9830 9829 9829 9829 9829 9828 9826 9823 9820 9819
2840.6318 9818 9819 9821 9822 9822 9822 9820 9819 9819 9820 9823 9826 9830
2846.8994 9833 9834 9833 9831 9829 9826 9825 9824 9824 9824 9825 9825 9824
2853.1667 9823 9821 9820 9819 9819 9819 9819 9818 9816 9812 9807 9803 9800
2859.4343 9800 9802 9804 9806 9806 9804 9802 9802 9803 9806 9809 9810 9811
2865.7019 9809 9807 9804 9802 9799 9797 9796 9796 9797 9800 9803 9806 9807
2871.9695 9806 9805 9803 9802 9803 9805 9807 9809 9808 9807 9804 9801 9799
2878.2368 9797 9796 9795 9793 9792 9792 9792 9792 9794 9795 9795 9794 9793
2884.5044 9791 9790 9790 9792 9794 9795 9796 9796 9795 9794 9793 9794 9795
2890.7720 9798 9800 9802 9802 9801 9798 9794 9789 9783 9777 9770 9765 9761
2897.0396 9759 9755 9750 9740 9727 9713 9700 9690 9683 9675 9667 9658 9647
2903.3069 9636 9627 9621 9618 9619 9621 9624 9628 9632 9635 9639 9641 9642
2909.5745 9642 9643 9643 9644 9645 9645 9646 9647 9651 9656 9662 9666 9669
2915.8420 9670 9670 9671 9674 9678 9682 9685 9688 9691 9697 9706 9718 9731
2922.1096 9744 9755 9764 9771 9777 9782 9786 9789 9793 9796 9800 9804 9808
2928.3770 9812 9816 9820 9823 9826 9830 9834 9841 9849 9859 9868 9876 9881
2934.6445 9886 9889 9893 9900 9908 9918 9927 9934 9937 9937 9936 9936 9937
2940.9121 9940 9942 9944 9943 9940 9936 9932 9929 9928 9928 9929 9931 9934
2947.1797 9938 9942 9945 9947 9946 9941 9934 9925 9916 9906 9897 9889 9882
2953.4470 9877 9873 9869 9864 9856 9844 9828 9808 9785 9762 9738 9714 9691
2959.7146 9669 9647 9623 9598 9571 9548 9529 9519 9519 9528 9545 9568 9595
2965.9822 9627 9661 9697 9734 9771 9807 9841 9871 9896 9918 9937 9953 9969
2972.2498 9985 9999 10013 10023 10029 10032 10033 10032 10032 10031 10030
2977.5530 10029 10026 10022 10016 10010 10003 9995 9986 9975 9961 9945 9928
2983.3384 9911 9895 9881 9868 9855 9841 9824 9806 9788 9774 9763 9756 9754
2989.6060 9756 9761 9770 9783 9799 9819 9841 9864 9889 9913 9938 9963 9988
2995.8733 10012 10035 10058 10081 10105 10128 10150 10171 10190 10207 10224
3001.1768 10238 10251 10261 10269 10275 10280 10284 10286 10287 10285 10281
3006.4800 10276 10273 10270 10269 10268 10267 10267 10265 10263 10257 10250
3011.7832 10240 10229 10218 10207 10196 10184 10171 10156 10143 10133 10128
3017.0864 10128 10135 10145 10159 10176 10193 10209 10223 10234 10243 10250
3022.3899 10256 10262 10266 10270 10272 10274 10275 10275 10274 10271 10268
3027.6931 10264 10260 10257 10256 10255 10254 10253 10252 10250 10248 10243
3032.9963 10236 10227 10217 10207 10197 10189 10180 10171 10160 10146 10130
3038.2996 10115 10101 10092 10088 10091 10099 10109 10121 10131 10141 10151
3043.6030 10161 10173 10185 10197 10208 10218 10226 10234 10242 10251 10261
3048.9063 10271 10281 10287 10290 10290 10289 10289 10293 10298 10303 10305
3054.2095 10304 10301 10299 10298 10300 10301 10301 10297 10291 10282 10272
3059.5127 10263 10256 10253 10252 10252 10251 10246 10236 10222 10206 10191
3064.8162 10180 10173 10173 10176 10181 10186 10190 10193 10194 10196 10198
3070.1194 10199 10200 10200 10199 10198 10197 10197 10195 10191 10185 10178
3075.4226 10172 10166 10161 10156 10149 10139 10127 10113 10100 10086 10072
3080.7258 10057 10040 10021 9998 9974 9948 9920 9889 9853 9812 9765 9713 9656
3086.9934 9596 9533 9467 9396 9320 9243 9167 9100 9046 9011 8998 9008 9041
3093.2610 9097 9174 9270 9382 9502 9625 9743 9852 9951 10041 10124 10199 10269
3099.5286 10331 10385 10429 10466 10496 10522 10547 10570 10593 10615 10634
3104.8318 10651 10667 10681 10695 10706 10714 10718 10720 10722 10726 10733
3110.1350 10742 10752 10761 10767 10768 10767 10764 10762 10763 10767 10773
3115.4382 10778 10782 10786 10789 10794 10801 10808 10815 10819 10819 10815
3120.7417 10808 10799 10791 10786 10784 10785 10787 10791 10795 10799 10805
3126.0449 10811 10816 10816 10812 10804 10794 10783 10774 10765 10760 10757
3131.3481 10759 10767 10778 10792 10803 10808 10807 10802 10795 10789 10785
3136.6514 10783 10781 10776 10769 10761 10754 10749 10745 10742 10737 10730
3141.9548 10721 10713 10708 10707 10708 10712 10716 10719 10722 10723 10725
3147.2581 10725 10726 10728 10730 10732 10733 10732 10725 10714 10701 10690
3152.5613 10683 10681 10684 10689 10694 10697 10698 10697 10694 10690 10686
3157.8645 10684 10683 10684 10685 10687 10687 10685 10682 10678 10673 10668
3163.1680 10665 10662 10661 10661 10661 10662 10663 10664 10665 10666 10666
3168.4712 10666 10664 10660 10655 10649 10644 10640 10638 10637 10636 10633
3173.7744 10627 10621 10615 10610 10605 10600 10593 10586 10579 10573 10567
3179.0776 10563 10559 10556 10553 10550 10548 10546 10542 10537 10530 10522
3184.3811 10516 10511 10509 10510 10511 10511 10509 10503 10495 10486 10478
3189.6843 10472 10466 10460 10453 10444 10434 10426 10421 10420 10421 10423
3194.9875 10425 10425 10424 10422 10418 10412 10405 10396 10388 10381 10375
3200.2908 10371 10370 10369 10368 10365 10361 10355 10350 10347 10348 10352
3205.5942 10358 10365 10369 10369 10365 10357 10349 10341 10335 10330 10326
3210.8975 10322 10318 10316 10316 10320 10325 10331 10336 10338 10340 10340
3216.2007 10341 10341 10339 10334 10327 10320 10314 10312 10314 10318 10321
3221.5039 10322 10318 10312 10305 10298 10293 10289 10287 10285 10284 10285
3226.8074 10288 10292 10296 10300 10302 10303 10302 10299 10294 10288 10280
3232.1106 10272 10264 10258 10253 10251 10251 10253 10257 10261 10264 10265
3237.4138 10262 10257 10251 10245 10242 10240 10239 10238 10235 10230 10226
3242.7170 10224 10225 10229 10235 10241 10246 10248 10245 10239 10231 10224
3248.0205 10219 10217 10219 10222 10226 10230 10232 10233 10233 10232 10232
3253.3237 10232 10234 10235 10235 10233 10230 10227 10224 10224 10226 10230
3258.6270 10237 10244 10251 10256 10258 10257 10254 10250 10248 10248 10250
3263.9302 10253 10256 10258 10260 10262 10265 10269 10274 10278 10282 10283
3269.2336 10284 10282 10280 10278 10276 10276 10279 10285 10292 10297 10299
3274.5369 10298 10295 10292 10293 10299 10308 10319 10328 10333 10333 10329
3279.8401 10322 10316 10311 10311 10313 10316 10317 10316 10314 10313 10315
3285.1433 10320 10325 10329 10328 10324 10319 10316 10319 10329 10342 10355
3290.4468 10363 10364 10360 10354 10349 10346 10342 10337 10327 10315 10303
3295.7500 10296 10293 10294 10296 10294 10289 10282 10277 10276 10280 10288
3301.0532 10296 10303 10305 10301 10292 10279 10266 10254 10243 10236 10229
3306.3564 10223 10215 10207 10199 10194 10193 10197 10207 10219 10231 10244
3311.6599 10254 10262 10269 10276 10283 10290 10297 10302 10308 10314 10321
3316.9631 10329 10338 10348 10356 10365 10373 10380 10384 10386 10387 10389
3322.2664 10395 10405 10417 10427 10432 10430 10425 10421 10420 10424 10432
3327.5696 10442 10454 10468 10482 10497 10510 10520 10528 10534 10541 10550
3332.8730 10562 10574 10584 10590 10593 10595 10597 10601 10606 10611 10614
3338.1763 10616 10619 10625 10634 10645 10654 10659 10659 10657 10655 10656
3343.4795 10661 10670 10680 10690 10696 10700 10701 10701 10699 10697 10695
3348.7827 10693 10692 10693 10694 10695 10694 10692 10687 10683 10681 10682
3354.0862 10686 10693 10701 10708 10712 10714 10714 10714 10713 10711 10706
3359.3894 10696 10682 10667 10654 10644 10637 10632 10626 10617 10605 10589
3364.6926 10570 10549 10528 10506 10485 10466 10448 10431 10414 10395 10375
3369.9958 10354 10335 10317 10301 10285 10269 10252 10232 10210 10186 10159
3375.2993 10131 10103 10076 10051 10030 10011 9995 9979 9962 9946 9929 9912
3381.0847 9896 9879 9862 9846 9830 9816 9805 9796 9788 9779 9767 9753 9737
3387.3521 9720 9703 9689 9677 9669 9662 9656 9651 9647 9644 9641 9638 9635
3393.6196 9630 9624 9618 9613 9608 9603 9597 9590 9580 9570 9558 9548 9540
3399.8872 9536 9536 9539 9542 9543 9542 9538 9532 9525 9518 9512 9507 9503
3406.1548 9500 9497 9496 9496 9497 9499 9499 9498 9495 9489 9483 9479 9476
3412.4221 9475 9474 9471 9468 9464 9460 9457 9454 9452 9449 9447 9446 9444
3418.6897 9443 9442 9441 9441 9442 9445 9447 9449 9448 9446 9442 9439 9435
3424.9573 9433 9432 9431 9431 9430 9430 9431 9431 9432 9433 9434 9436 9437
3431.2249 9437 9437 9435 9432 9429 9425 9422 9418 9415 9411 9408 9407 9409
3437.4922 9414 9421 9427 9429 9428 9424 9420 9417 9417 9419 9420 9418 9413
3443.7598 9405 9397 9391 9388 9388 9391 9396 9400 9402 9402 9399 9395 9390
3450.0273 9388 9389 9393 9399 9402 9402 9398 9391 9383 9376 9372 9369 9367
3456.2949 9367 9366 9365 9363 9361 9359 9358 9361 9365 9371 9376 9378 9376
3462.5623 9371 9365 9359 9354 9351 9349 9347 9345 9343 9340 9337 9335 9334
3468.8298 9336 9340 9343 9345 9343 9337 9329 9320 9314 9312 9314 9319 9324
3475.0974 9329 9330 9328 9325 9321 9317 9315 9314 9313 9311 9309 9306 9304
3481.3650 9305 9308 9313 9316 9317 9316 9312 9309 9307 9308 9310 9314 9316
3487.6323 9317 9315 9310 9306 9302 9300 9299 9298 9296 9293 9290 9289 9291
3493.8999 9294 9299 9301 9301 9298 9294 9290 9289 9291 9294 9299 9303 9307
3500.1675 9308 9308 9307 9306 9307 9309 9309 9308 9305 9301 9298 9296 9295
3506.4351 9291 9286 9280 9275 9274 9277 9282 9289 9295 9300 9304 9308 9310
3512.7024 9310 9306 9298 9289 9281 9274 9270 9270 9271 9274 9278 9281 9284
3518.9700 9284 9283 9279 9273 9268 9264 9262 9264 9269 9275 9283 9291 9296
3525.2375 9299 9299 9295 9290 9284 9279 9275 9272 9270 9267 9265 9264 9263
3531.5051 9263 9264 9264 9264 9263 9261 9257 9254 9255 9260 9269 9279 9285
3537.7725 9286 9282 9276 9268 9262 9258 9256 9254 9253 9253 9252 9249 9245
3544.0400 9240 9236 9233 9235 9240 9247 9254 9258 9259 9258 9256 9254 9254
3550.3076 9256 9258 9260 9261 9260 9256 9251 9246 9242 9237 9233 9230 9229
3556.5752 9231 9236 9244 9251 9256 9257 9256 9253 9250 9249 9248 9247 9245
3562.8428 9243 9242 9242 9243 9247 9252 9258 9261 9259 9251 9239 9226 9217
3569.1101 9210 9208 9208 9209 9210 9211 9212 9213 9214 9216 9219 9223 9227
3575.3777 9232 9237 9241 9245 9248 9248 9245 9238 9228 9216 9205 9197 9194
3581.6453 9195 9199 9205 9211 9216 9217 9215 9209 9202 9195 9193 9198 9211
3587.9128 9224 9233 9234 9227 9217 9207 9201 9199 9201 9204 9205 9203 9197
3594.1802 9192 9190 9191 9195 9199 9201 9201 9202 9203 9206 9207 9207 9204
3600.4478 9199 9194 9192 9191 9192 9192 9190 9186 9182 9179 9179 9184 9191
3606.7153 9198 9200 9197 9190 9181 9175 9171 9169 9168 9166 9165 9167 9175
3612.9829 9189 9206 9221 9230 9229 9221 9207 9191 9176 9164 9158 9157 9160
3619.2502 9164 9167 9168 9168 9168 9168 9169 9170 9169 9167 9164 9161 9159
3625.5178 9157 9157 9157 9158 9163 9174 9189 9201 9201 9191 9179 9170 9164
3631.7854 9160 9156 9153 9149 9146 9144 9143 9143 9142 9141 9142 9144 9148
3638.0530 9152 9153 9151 9148 9144 9141 9139 9137 9133 9128 9124 9123 9125
3644.3203 9131 9137 9141 9138 9128 9114 9102 9097 9099 9105 9110 9111 9110
3650.5879 9108 9108 9109 9112 9116 9120 9124 9128 9131 9131 9129 9125 9121
3656.8555 9117 9115 9116 9117 9120 9123 9125 9125 9124 9122 9121 9122 9126
3663.1230 9132 9138 9143 9145 9145 9141 9134 9126 9119 9117 9120 9129 9140
3669.3904 9147 9146 9138 9130 9125 9123 9121 9117 9111 9103 9093 9092 9106
3675.6580 9127 9140 9143 9142 9140 9140 9145 9152 9160 9165 9166 9162 9156
3681.9255 9148 9139 9132 9127 9125 9126 9128 9128 9125 9119 9110 9103 9103
3688.1931 9112 9126 9138 9144 9145 9142 9137 9130 9122 9116 9111 9110 9113
3694.4604 9118 9122 9122 9116 9104 9092 9083 9081 9084 9092 9102 9110 9117
3700.7280 9122 9125 9126 9122 9114 9105 9097 9093 9094 9100 9106 9110 9108
3706.9956 9102 9096 9091 9089 9090 9093 9097 9105 9117 9133 9146 9149 9141
3713.2632 9128 9117 9110 9108 9112 9119 9128 9136 9142 9143 9140 9134 9127
3719.5305 9124 9124 9128 9133 9139 9142 9144 9145 9146 9148 9150 9153 9156
3725.7981 9159 9160 9159 9155 9150 9143 9136 9129 9124 9121 9122 9127 9135
3732.0657 9142 9143 9139 9129 9118 9109 9106 9114 9129 9145 9157 9163 9162
3738.3333 9154 9144 9136 9132 9136 9143 9149 9150 9145 9136 9128 9128 9146
3744.6006 9169 9176 9170 9159 9149 9143 9139 9138 9137 9130 9120 9111 9106
3750.8682 9109 9120 9134 9143 9144 9137 9128 9119 9111 9108 9111 9121 9132
3757.1357 9139 9141 9139 9134 9132 9135 9141 9147 9150 9150 9148 9145 9143
3763.4033 9142 9141 9141 9143 9147 9150 9152 9151 9148 9143 9137 9133 9135
3769.6707 9144 9157 9167 9174 9175 9175 9173 9171 9169 9167 9166 9164 9162
3775.9382 9158 9153 9148 9142 9137 9133 9131 9130 9131 9134 9138 9141 9145
3782.2058 9147 9149 9152 9156 9160 9162 9161 9155 9148 9142 9140 9140 9143
3788.4734 9145 9146 9144 9139 9134 9130 9129 9131 9135 9139 9140 9139 9135
3794.7407 9133 9134 9141 9152 9163 9168 9165 9157 9148 9141 9138 9142 9155
3801.0083 9172 9185 9188 9184 9178 9171 9164 9157 9150 9145 9146 9153 9164
3807.2759 9172 9175 9173 9169 9166 9162 9159 9155 9150 9146 9142 9138 9133
3813.5435 9125 9115 9104 9099 9104 9121 9141 9154 9161 9162 9160 9157 9154
3819.8108 9152 9155 9164 9174 9179 9179 9174 9167 9158 9150 9143 9138 9138
3826.0784 9141 9147 9154 9159 9162 9162 9160 9157 9154 9152 9153 9154 9154
3832.3459 9152 9149 9146 9145 9146 9150 9153 9154 9154 9153 9153 9154 9156
3838.6135 9157 9156 9155 9153 9151 9149 9147 9146 9147 9149 9152 9152 9151
3844.8809 9149 9147 9146 9147 9149 9150 9151 9152 9152 9151 9151 9151 9152
3851.1484 9154 9160 9171 9185 9196 9198 9191 9181 9171 9163 9158 9157 9160
3857.4160 9164 9166 9164 9159 9152 9147 9147 9155 9167 9179 9185 9186 9181
3863.6836 9176 9174 9176 9181 9183 9181 9175 9165 9154 9144 9139 9144 9160
3869.9509 9178 9184 9181 9171 9162 9154 9151 9153 9158 9162 9163 9162 9162
3876.2185 9162 9163 9163 9162 9159 9156 9155 9160 9169 9178 9183 9183 9180
3882.4861 9176 9170 9164 9157 9154 9155 9162 9170 9174 9172 9167 9159 9152
3888.7537 9145 9139 9134 9133 9137 9145 9154 9160 9160 9158 9155 9154 9156
3895.0210 9159 9163 9164 9163 9160 9158 9157 9160 9166 9172 9177 9180 9182
3901.2886 9182 9178 9170 9161 9153 9148 9147 9150 9155 9159 9163 9166 9166
3907.5562 9165 9161 9156 9150 9146 9143 9143 9145 9151 9157 9164 9167 9168
3913.8237 9165 9160 9156 9155 9157 9160 9161 9161 9158 9156 9156 9156 9155
3920.0911 9152 9147 9140 9134 9130 9130 9135 9143 9154 9165 9173 9175 9173
3926.3586 9168 9160 9151 9144 9140 9140 9142 9146 9148 9149 9149 9150 9153
3932.6262 9158 9164 9168 9170 9170 9169 9167 9164 9161 9157 9152 9148 9146
3938.8938 9145 9145 9144 9143 9142 9141 9142 9144 9145 9146 9144 9142 9141
3945.1611 9141 9142 9144 9144 9144 9142 9141 9140 9140 9140 9139 9138 9136
3951.4287 9135 9135 9138 9141 9144 9146 9147 9149 9151 9154 9159 9165 9170
3957.6963 9172 9171 9168 9164 9162 9163 9166 9170 9172 9172 9167 9161 9156
3963.9639 9153 9153 9155 9157 9159 9161 9162 9164 9167 9171 9175 9180 9184
3970.2312 9186 9185 9180 9172 9162 9154 9150 9151 9155 9161 9165 9168 9170
3976.4988 9172 9175 9178 9179 9178 9175 9169 9164 9160 9157 9155 9152 9148
3982.7664 9144 9143 9145 9152 9160 9167 9172 9174 9173 9171 9167 9163 9159
3989.0339 9154 9150 9148 9148 9149 9152 9154 9157 9159 9161 9162 9162 9161
3995.3013 9160 9160 9162 9166 9170 9173 9174 9170 9163 9153 9144
##END= 
