##TITLE= STDSULFATIAZOLO_ATR
##JCAMP-DX= 4.24
##DATA TYPE= INFRARED SPECTRUM
##ORIGIN= JASCO
##OWNER= 
##DATE= 22/03/31
##TIME= 09:09:03
##SPECTROMETER/DATA SYSTEM= 
##RESOLUTION= 
##DELTAX=   0.48211674
##XUNITS= 1/CM
##YUNITS= TRANSMITTANCE
##XFACTOR= 1.00000
##YFACTOR= 1E-005
##FIRSTX=   599.7532
##LASTX=  4000.1226
##NPOINTS=     7054
##FIRSTY=      0.74721
##MAXY=      0.96021
##MINY=      0.31830
##XYDATA= (X++(Y..Y))
599.7532 74721 73845 72863 71812 70696 69479 68102 66515 64692 62635 60370
605.0565 57954 55498 53196 51314 50146 49928 50767 52603 55225 58322 61551
610.3598 64606 67263 69392 70944 71921 72354 72300 71838 71067 70092 68998
615.6631 67841 66648 65430 64204 62986 61779 60559 59286 57929 56485 54989
620.9664 53495 52042 50639 49258 47863 46428 44945 43414 41830 40197 38538
626.2697 36912 35405 34107 33082 32362 31949 31830 31991 32431 33158 34190
631.5729 35550 37264 39363 41890 44901 48441 52504 56990 61681 66263 70403
636.8762 73843 76451 78225 79254 79672 79618 79207 78531 77654 76617 75451
642.1795 74174 72809 71393 69999 68731 67706 67019 66711 66758 67086 67601
647.4828 68215 68858 69479 70050 70574 71086 71641 72289 73033 73813 74509
652.7861 74987 75161 75036 74696 74262 73827 73427 73038 72609 72100 71504
658.0894 70845 70166 69502 68862 68223 67538 66762 65873 64895 63879 62888
663.3926 61961 61110 60318 59561 58813 58044 57217 56282 55217 54195 53725
668.6959 53889 54024 53825 53359 52730 52012 51249 50469 49689 48931 48231
673.9992 47632 47155 46781 46457 46136 45808 45520 45344 45337 45506 45813
679.3025 46202 46629 47079 47561 48106 48750 49529 50466 51559 52781 54097
684.6058 55498 57030 58802 60944 63546 66600 69976 73452 76780 79761 82280
689.9091 84307 85863 86995 87773 88287 88643 88935 89209 89447 89584 89548
695.2123 89297 88809 88062 87016 85634 83949 82113 80376 78983 78044 77452
700.5156 76931 76188 75105 73853 72853 72598 73433 75403 78248 81509 84695
705.8189 87414 89451 90772 91480 91744 91723 91522 91179 90693 90075 89373
711.1222 88674 88064 87584 87206 86851 86434 85906 85279 84605 83940 83318
716.4255 82748 82225 81760 81378 81112 80975 80938 80918 80807 80513 79999
721.7288 79280 78397 77389 76287 75124 73943 72780 71646 70512 69323 68024
727.0320 66613 65157 63796 62705 62046 61933 62399 63396 64800 66442 68142
732.3353 69752 71196 72496 73758 75129 76731 78608 80706 82885 84973 86822
737.6386 88342 89512 90355 90914 91234 91358 91346 91269 91203 91202 91282
742.9419 91411 91525 91557 91470 91271 91008 90741 90521 90360 90241 90131
748.2452 90004 89856 89700 89548 89392 89195 88908 88498 87970 87374 86784
753.5485 86267 85848 85508 85203 84901 84604 84349 84183 84122 84130 84133
758.8517 84056 83870 83597 83290 82999 82748 82535 82348 82174 82005 81833
764.1550 81654 81459 81244 80995 80685 80277 79742 79083 78355 77646 77049
769.4583 76617 76346 76181 76044 75863 75595 75233 74801 74336 73879 73456
774.7616 73074 72723 72391 72074 71784 71544 71367 71243 71139 71010 70819
780.0649 70551 70211 69825 69421 69028 68662 68335 68045 67787 67552 67332
785.3682 67125 66925 66728 66521 66293 66032 65731 65387 65000 64577 64138
790.6714 63712 63325 62985 62670 62342 61964 61526 61047 60561 60093 59644
795.9747 59192 58720 58225 57731 57257 56809 56360 55871 55316 54705 54084
801.2780 53519 53062 52732 52513 52371 52276 52223 52229 52322 52525 52847
806.5813 53282 53815 54432 55118 55847 56579 57264 57845 58279 58540 58627
811.8846 58551 58330 57987 57546 57036 56484 55909 55308 54659 53935 53119
817.1879 52227 51317 50469 49770 49291 49078 49166 49585 50371 51560 53167
822.4911 55162 57446 59849 62155 64142 65635 66554 66927 66866 66526 66036
827.7944 65466 64823 64084 63243 62341 61463 60704 60133 59770 59597 59573
833.0977 59666 59855 60119 60426 60731 60997 61217 61422 61669 61999 62410
838.4010 62843 63204 63404 63388 63151 62730 62182 61564 60918 60269 59623
843.7043 58967 58276 57525 56695 55788 54817 53804 52766 51715 50659 49616
849.0076 48621 47724 46980 46440 46142 46110 46350 46852 47580 48462 49401
854.3109 50295 51068 51700 52222 52704 53217 53813 54521 55353 56319 57422
859.6141 58650 59972 61332 62662 63904 65023 66014 66897 67697 68426 69072
864.9174 69599 69960 70117 70059 69798 69366 68806 68164 67498 66873 66353
870.2207 65977 65745 65614 65523 65413 65253 65036 64767 64448 64074 63642
875.5240 63159 62648 62131 61625 61131 60642 60156 59679 59225 58807 58431
880.8273 58092 57785 57505 57250 57022 56824 56657 56522 56415 56333 56269
886.1306 56219 56185 56176 56197 56245 56301 56342 56350 56327 56296 56287
891.4338 56323 56403 56509 56613 56690 56728 56729 56701 56653 56591 56516
896.7371 56425 56314 56177 56012 55823 55619 55417 55231 55066 54919 54774
902.0404 54616 54432 54216 53969 53696 53401 53088 52762 52433 52117 51829
907.3437 51579 51359 51150 50919 50643 50313 49938 49545 49160 48800 48466
912.6470 48150 47843 47535 47224 46906 46580 46242 45895 45545 45202 44871
917.9503 44553 44238 43919 43590 43258 42938 42645 42391 42178 41999 41847
923.2535 41713 41592 41485 41392 41321 41284 41301 41392 41572 41845 42206
928.5568 42644 43150 43720 44351 45036 45759 46499 47234 47947 48629 49280
933.8601 49900 50494 51066 51618 52155 52682 53213 53770 54380 55067 55839
939.1634 56683 57565 58445 59291 60089 60839 61544 62200 62796 63315 63741
944.4667 64069 64295 64414 64421 64309 64085 63780 63456 63197 63090 63200
949.7700 63549 64106 64801 65549 66276 66940 67534 68084 68627 69195 69802
955.0732 70444 71105 71767 72424 73076 73729 74380 75017 75615 76150 76611
960.3765 77005 77354 77682 78006 78324 78616 78860 79042 79163 79244 79314
965.6798 79398 79512 79659 79829 80006 80167 80286 80341 80321 80238 80125
970.9831 80027 79988 80030 80153 80332 80538 80740 80921 81071 81192 81288
976.2864 81367 81438 81506 81575 81643 81707 81765 81809 81835 81842 81834
981.5897 81822 81819 81839 81885 81952 82029 82105 82172 82231 82288 82346
986.8929 82410 82477 82543 82603 82652 82689 82712 82728 82740 82754 82772
992.1962 82793 82812 82825 82832 82833 82827 82813 82788 82755 82723 82705
997.4995 82712 82742 82784 82819 82837 82841 82840 82846 82856 82856 82826
1002.8028 82754 82646 82517 82387 82262 82139 82010 81870 81723 81575 81424
1008.1061 81248 81001 80619 80041 79231 78206 77046 75889 74904 74249 74025
1013.4094 74249 74850 75697 76639 77548 78346 79001 79518 79916 80211 80418
1018.7126 80548 80618 80646 80649 80638 80614 80575 80522 80466 80419 80389
1024.0160 80372 80355 80322 80267 80196 80126 80071 80034 80010 79985 79949
1029.3192 79895 79824 79740 79646 79545 79437 79323 79204 79082 78963 78853
1034.6226 78760 78685 78627 78576 78525 78467 78400 78327 78250 78168 78080
1039.9258 77984 77877 77758 77622 77471 77313 77161 77031 76933 76858 76788
1045.2291 76698 76572 76412 76237 76067 75917 75786 75659 75518 75349 75150
1050.5323 74928 74699 74477 74271 74080 73899 73718 73531 73334 73129 72915
1055.8357 72687 72438 72161 71855 71530 71199 70879 70579 70300 70030 69750
1061.1389 69444 69100 68719 68313 67895 67477 67059 66630 66180 65703 65197
1066.4423 64668 64118 63542 62930 62277 61589 60890 60219 59630 59188 58955
1071.7455 58983 59283 59815 60478 61137 61657 61943 61971 61775 61419 60962
1077.0488 60433 59838 59174 58451 57692 56924 56168 55433 54713 54011 53338
1082.3521 52717 52175 51729 51382 51127 50946 50829 50767 50760 50812 50924
1087.6554 51100 51345 51670 52089 52621 53279 54066 54974 55978 57047 58144
1092.9586 59236 60294 61296 62229 63084 63863 64570 65209 65780 66278 66696
1098.2620 67027 67274 67445 67557 67629 67689 67778 67954 68283 68819 69579
1103.5652 70528 71583 72637 73589 74369 74945 75310 75473 75451 75267 74958
1108.8685 74564 74124 73662 73186 72689 72164 71606 71019 70404 69765 69104
1114.1718 68424 67731 67026 66304 65553 64753 63885 62942 61929 60864 59766
1119.4751 58650 57525 56391 55243 54076 52892 51699 50507 49329 48179 47067
1124.7783 46003 45001 44074 43239 42507 41881 41358 40929 40586 40326 40154
1130.0817 40080 40116 40265 40523 40878 41317 41830 42409 43046 43735 44466
1135.3849 45231 46029 46867 47756 48707 49724 50800 51915 53048 54181 55301
1140.6882 56404 57494 58579 59665 60759 61865 62988 64136 65326 66580 67923
1145.9915 69372 70937 72610 74373 76198 78040 79843 81534 83039 84299 85288
1151.2948 86024 86569 87009 87432 87906 88466 89116 89834 90588 91347 92082
1156.5980 92777 93414 93982 94467 94864 95172 95406 95583 95724 95840 95931
1161.9014 95993 96021 96016 95982 95928 95860 95779 95685 95581 95469 95352
1167.2046 95233 95111 94993 94882 94787 94707 94638 94568 94485 94383 94264
1172.5079 94132 93991 93833 93645 93412 93127 92794 92434 92078 91758 91502
1177.8112 91326 91232 91212 91255 91349 91487 91661 91856 92047 92205 92305
1183.1145 92331 92286 92189 92064 91933 91807 91686 91567 91447 91329 91219
1188.4177 91120 91034 90954 90874 90790 90698 90599 90490 90374 90251 90123
1193.7211 89989 89843 89681 89506 89326 89158 89019 88914 88831 88755 88666
1199.0243 88557 88433 88303 88173 88046 87920 87792 87663 87535 87408 87282
1204.3276 87155 87029 86905 86785 86665 86536 86389 86217 86021 85810 85590
1209.6309 85369 85150 84933 84720 84511 84309 84111 83911 83700 83470 83215
1214.9342 82939 82649 82360 82090 81857 81672 81544 81472 81455 81484 81549
1220.2374 81634 81719 81785 81814 81799 81744 81660 81559 81449 81328 81187
1225.5408 81021 80829 80618 80400 80184 79975 79774 79576 79376 79172 78962
1230.8440 78745 78519 78284 78040 77787 77526 77255 76969 76668 76353 76026
1236.1473 75693 75359 75024 74692 74360 74030 73697 73358 73007 72640 72258
1241.4506 71867 71472 71075 70672 70256 69821 69363 68886 68391 67881 67359
1246.7539 66835 66322 65839 65402 65015 64668 64344 64021 63685 63330 62962
1252.0571 62588 62221 61874 61557 61276 61030 60812 60608 60406 60196 59976
1257.3605 59749 59522 59302 59094 58907 58747 58624 58544 58515 58538 58612
1262.6637 58726 58859 58983 59067 59088 59031 58888 58649 58301 57839 57291
1267.9670 56741 56318 56169 56424 57167 58427 60170 62290 64620 66977 69202
1273.2703 71196 72909 74316 75395 76126 76498 76519 76218 75645 74859 73929
1278.5736 72931 71950 71068 70369 69919 69765 69927 70404 71173 72199 73435
1283.8768 74824 76301 77802 79271 80665 81956 83126 84164 85061 85819 86445
1289.1802 86955 87369 87701 87957 88136 88231 88235 88148 87968 87683 87266
1294.4834 86682 85914 84994 84023 83151 82531 82247 82291 82583 83029 83579
1299.7867 84240 85046 86002 87047 88059 88902 89480 89768 89806 89663 89404
1305.0900 89069 88678 88240 87761 87252 86726 86194 85667 85154 84660 84189
1310.3933 83745 83329 82944 82590 82262 81950 81640 81315 80958 80551 80072
1315.6965 79502 78823 78030 77125 76114 75016 73862 72708 71628 70701 69992
1320.9999 69548 69396 69552 70013 70753 71717 72827 73998 75152 76228 77184
1326.3031 77993 78644 79137 79484 79701 79818 79869 79892 79923 79991 80112
1331.6064 80294 80542 80862 81256 81726 82267 82876 83549 84279 85052 85838
1336.9097 86600 87305 87941 88515 89044 89538 89988 90370 90667 90884 91040
1342.2130 91159 91256 91338 91400 91432 91427 91390 91332 91269 91212 91165
1347.5162 91127 91098 91078 91067 91064 91060 91050 91028 90998 90966 90936
1352.8196 90909 90880 90844 90799 90747 90692 90634 90567 90485 90385 90271
1358.1228 90150 90030 89911 89789 89658 89517 89370 89225 89088 88965 88859
1363.4261 88768 88686 88608 88528 88446 88362 88278 88196 88117 88041 87971
1368.7294 87909 87858 87812 87764 87702 87621 87520 87403 87277 87152 87034
1374.0327 86931 86839 86752 86658 86550 86423 86277 86115 85947 85782 85628
1379.3359 85485 85345 85203 85054 84899 84739 84578 84413 84242 84062 83875
1384.6393 83687 83503 83325 83145 82952 82736 82499 82259 82028 81809 81594
1389.9425 81372 81135 80878 80602 80310 80003 79678 79338 78992 78673 78422
1395.2458 78256 78153 78070 77980 77867 77716 77517 77266 76982 76695 76421
1400.5491 76155 75879 75582 75266 74939 74616 74304 74006 73721 73451 73197
1405.8524 72951 72693 72401 72056 71651 71192 70694 70173 69641 69103 68564
1411.1556 68033 67517 67015 66525 66040 65564 65097 64640 64182 63713 63231
1416.4590 62751 62290 61861 61457 61066 60686 60350 60092 59904 59756 59627
1421.7622 59515 59429 59391 59428 59548 59731 59945 60182 60455 60783 61170
1427.0656 61603 62057 62521 63013 63573 64227 64940 65627 66223 66732 67202
1432.3688 67684 68189 68680 69104 69433 69696 69982 70450 71263 72367 73422
1437.6721 74217 74822 75382 75988 76670 77408 78158 78878 79552 80180 80768
1442.9753 81317 81824 82290 82712 83085 83402 83663 83884 84093 84319 84565
1448.2787 84798 84974 85079 85131 85155 85172 85197 85231 85265 85284 85279
1453.5819 85247 85192 85121 85042 84963 84895 84851 84839 84844 84838 84802
1458.8853 84733 84640 84529 84405 84272 84129 83974 83807 83626 83433 83233
1464.1885 83041 82884 82776 82700 82622 82525 82404 82262 82107 81944 81777
1469.4918 81606 81431 81253 81083 80937 80836 80783 80735 80650 80530 80390
1474.7950 80242 80091 79938 79783 79624 79458 79277 79078 78862 78634 78405
1480.0984 78185 77984 77801 77631 77458 77263 77028 76741 76404 76030 75634
1485.4016 75222 74786 74308 73789 73262 72773 72340 71931 71482 70925 70264
1490.7050 69580 68937 68334 67740 67143 66555 66003 65536 65232 65232 65697
1496.0082 66671 67943 69229 70447 71707 73091 74496 75677 76460 76860 77004
1501.3115 77018 76970 76873 76720 76514 76271 76012 75740 75426 74990 74326
1506.6147 73542 72957 72595 72298 71992 71676 71365 71058 70736 70369 69939
1511.9181 69453 68946 68456 67995 67551 67106 66644 66147 65578 64893 64115
1517.2213 63382 62807 62374 62007 61636 61198 60615 59787 58705 57652 56905
1522.5247 56404 55998 55605 55183 54700 54145 53553 53005 52584 52323 52214
1527.8279 52236 52370 52606 52948 53397 53950 54594 55317 56152 57219 58745
1533.1312 60897 63424 65735 67512 68862 70000 71046 72019 72892 73645 74342
1538.4344 75222 76736 79052 81259 82544 83239 83864 84594 85337 85950 86393
1543.7378 86742 87106 87537 87990 88365 88609 88741 88803 88822 88808 88759
1549.0410 88671 88550 88402 88234 88050 87851 87639 87408 87139 86798 86365
1554.3444 85886 85449 85093 84790 84491 84150 83719 83127 82276 81195 80284
1559.6476 79617 78969 78301 77629 76955 76260 75519 74701 73782 72754 71650
1564.9509 70552 69545 68667 67908 67237 66620 66019 65382 64660 63871 63150
1570.2542 62609 62228 61955 61774 61699 61743 61895 62121 62399 62764 63363
1575.5575 64443 66057 67688 68798 69435 69863 70248 70647 71056 71449 71808
1580.8607 72131 72431 72718 72989 73240 73467 73672 73864 74043 74199 74316
1586.1641 74377 74374 74308 74185 74017 73812 73575 73301 72984 72620 72210
1591.4674 71774 71341 70950 70646 70476 70485 70709 71160 71827 72683 73701
1596.7706 74851 76094 77377 78643 79842 80946 81949 82853 83664 84389 85037
1602.0740 85619 86143 86612 87020 87361 87640 87868 88062 88234 88393 88540
1607.3772 88676 88803 88926 89051 89178 89300 89411 89508 89599 89695 89804
1612.6805 89923 90036 90120 90163 90166 90146 90135 90184 90321 90481 90578
1617.9838 90601 90583 90547 90507 90462 90409 90343 90261 90169 90083 90022
1623.2871 89999 89992 89966 89905 89818 89720 89630 89572 89566 89622 89719
1628.5903 89821 89912 89995 90085 90196 90328 90471 90603 90707 90782 90839
1633.8937 90902 91012 91209 91479 91710 91831 91885 91934 92001 92081 92163
1639.1969 92234 92293 92347 92403 92466 92533 92593 92638 92662 92664 92649
1644.5002 92617 92569 92508 92447 92420 92468 92594 92753 92901 93013 93083
1649.8035 93115 93116 93092 93046 92978 92900 92884 93039 93214 93262 93241
1655.1068 93199 93157 93124 93101 93088 93079 93068 93047 93014 92969 92917
1660.4100 92857 92794 92729 92673 92642 92644 92668 92694 92707 92708 92698
1665.7134 92683 92666 92647 92626 92604 92585 92573 92573 92576 92572 92561
1671.0166 92550 92546 92553 92565 92578 92588 92598 92616 92654 92707 92748
1676.3199 92760 92743 92708 92660 92604 92549 92503 92476 92466 92461 92449
1681.6232 92424 92383 92332 92283 92276 92363 92481 92517 92490 92441 92392
1686.9265 92351 92326 92320 92335 92361 92386 92400 92402 92397 92391 92384
1692.2297 92369 92344 92306 92257 92202 92150 92117 92118 92145 92164 92160
1697.5331 92142 92121 92104 92103 92141 92227 92287 92257 92184 92106 92032
1702.8363 91962 91896 91838 91794 91776 91793 91847 91922 91992 92036 92046
1708.1396 92032 92004 91976 91956 91946 91942 91932 91907 91866 91811 91744
1713.4429 91672 91602 91544 91504 91472 91438 91398 91358 91341 91365 91406
1718.7462 91417 91384 91323 91249 91172 91099 91037 90988 90954 90936 90931
1724.0494 90931 90927 90912 90885 90849 90809 90769 90729 90689 90649 90613
1729.3528 90593 90590 90597 90591 90559 90493 90391 90254 90099 89999 90035
1734.6560 90155 90258 90322 90358 90377 90386 90390 90401 90432 90499 90590
1739.9594 90663 90681 90645 90577 90500 90435 90395 90390 90414 90451 90483
1745.2626 90501 90499 90470 90417 90350 90294 90266 90265 90272 90269 90254
1750.5659 90243 90261 90313 90373 90413 90419 90396 90356 90312 90272 90238
1755.8691 90203 90161 90110 90059 90017 89983 89953 89920 89887 89866 89877
1761.1725 89935 90026 90102 90128 90107 90062 90011 89965 89917 89858 89784
1766.4757 89700 89624 89583 89592 89631 89661 89653 89604 89529 89460 89443
1771.7791 89520 89657 89756 89769 89721 89651 89588 89547 89533 89536 89539
1777.0823 89531 89505 89463 89410 89354 89309 89288 89303 89346 89397 89433
1782.3856 89442 89422 89379 89323 89271 89242 89242 89263 89289 89307 89308
1787.6888 89289 89252 89198 89131 89053 88968 88889 88840 88854 88948 89084
1792.9922 89195 89243 89235 89198 89159 89139 89143 89159 89169 89162 89136
1798.2954 89100 89065 89042 89038 89056 89095 89153 89222 89287 89332 89345
1803.5988 89326 89283 89227 89166 89107 89057 89022 89008 89011 89022 89029
1808.9020 89020 88994 88963 88945 88959 89004 89067 89127 89173 89200 89211
1814.2053 89212 89209 89206 89204 89205 89204 89198 89183 89159 89133 89116
1819.5085 89119 89144 89188 89240 89283 89303 89292 89252 89192 89127 89076
1824.8119 89057 89073 89106 89130 89131 89113 89087 89067 89070 89104 89154
1830.1151 89191 89198 89188 89180 89185 89204 89225 89232 89217 89181 89137
1835.4185 89100 89079 89076 89084 89099 89113 89126 89136 89142 89143 89134
1840.7217 89113 89079 89037 88995 88967 88969 89010 89068 89097 89071 89005
1846.0250 88928 88867 88832 88826 88832 88832 88815 88788 88761 88746 88745
1851.3282 88752 88757 88752 88736 88707 88666 88615 88558 88505 88469 88458
1856.6316 88472 88504 88538 88562 88568 88557 88533 88501 88463 88419 88372
1861.9348 88328 88295 88278 88275 88278 88280 88274 88263 88255 88259 88278
1867.2382 88312 88354 88398 88438 88473 88501 88522 88535 88533 88511 88462
1872.5414 88390 88307 88241 88213 88232 88284 88342 88379 88383 88364 88343
1877.8447 88337 88348 88365 88374 88364 88336 88297 88257 88226 88211 88215
1883.1479 88235 88264 88291 88302 88289 88252 88198 88146 88114 88121 88174
1888.4513 88268 88373 88444 88453 88412 88364 88346 88370 88421 88468 88477
1893.7545 88432 88344 88244 88171 88148 88174 88229 88286 88324 88336 88330
1899.0579 88324 88336 88368 88410 88436 88425 88366 88267 88148 88030 87928
1904.3611 87852 87806 87792 87807 87845 87893 87934 87949 87930 87886 87841
1909.6644 87827 87864 87946 88042 88115 88140 88118 88074 88043 88052 88102
1914.9677 88173 88245 88308 88377 88467 88576 88667 88686 88615 88483 88338
1920.2710 88209 88095 87975 87832 87688 87611 87679 87914 88256 88604 88874
1925.5742 89033 89105 89146 89198 89260 89280 89197 88982 88664 88318 88025
1930.8776 87835 87753 87755 87815 87919 88067 88252 88450 88618 88705 88679
1936.1808 88540 88324 88081 87860 87697 87607 87594 87651 87760 87891 88001
1941.4841 88037 87966 87811 87662 87619 87728 87965 88252 88487 88577 88487
1946.7874 88263 88013 87850 87840 87985 88221 88451 88588 88609 88564 88545
1952.0907 88629 88822 89040 89158 89079 88798 88416 88083 87919 87951 88121
1957.3939 88327 88481 88536 88487 88343 88114 87811 87466 87155 86986 87062
1962.6973 87429 88035 88731 89328 89683 89771 89687 89586 89590 89708 89837
1968.0005 89835 89628 89235 88739 88229 87780 87445 87269 87294 87543 88003
1973.3038 88608 89237 89746 90006 89949 89595 89033 88391 87787 87299 86962
1978.6071 86787 86783 86957 87287 87708 88115 88402 88513 88467 88339 88212
1983.9104 88136 88114 88128 88160 88209 88270 88327 88346 88294 88163 87976
1989.2136 87777 87606 87490 87451 87506 87655 87858 88035 88112 88056 87894
1994.5170 87690 87517 87427 87431 87501 87595 87676 87724 87732 87705 87658
1999.8202 87614 87592 87593 87586 87521 87361 87110 86838 86656 86675 86952
2005.1235 87461 88093 88694 89109 89253 89146 88903 88671 88544 88517 88501
2010.4268 88385 88112 87733 87375 87177 87202 87407 87672 87872 87943 87909
2015.7301 87847 87827 87861 87884 87805 87572 87219 86860 86649 86714 87110
2021.0333 87779 88559 89245 89654 89696 89388 88841 88217 87668 87298 87138
2026.3367 87150 87252 87357 87393 87321 87156 86963 86850 86917 87203 87644
2031.6399 88086 88349 88325 88049 87681 87410 87349 87485 87707 87893 87981
2036.9432 87990 87981 87993 88015 87985 87838 87548 87167 86812 86621 86674
2042.2465 86945 87303 87578 87637 87454 87115 86766 86538 86496 86628 86871
2047.5498 87142 87367 87487 87473 87334 87118 86891 86708 86593 86550 86573
2052.8530 86661 86813 87010 87206 87339 87354 87236 87016 86760 86545 86429
2058.1563 86439 86564 86762 86976 87151 87247 87248 87159 87000 86795 86572
2063.4597 86359 86181 86062 86008 86011 86050 86102 86157 86217 86293 86390
2068.7629 86500 86602 86665 86667 86605 86506 86410 86361 86380 86456 86550
2074.0662 86611 86599 86507 86371 86252 86219 86310 86516 86777 87007 87135
2079.3694 87129 87017 86859 86727 86669 86701 86799 86921 87013 87036 86978
2084.6729 86862 86734 86642 86614 86651 86729 86816 86893 86949 86983 87000
2089.9761 87004 87007 87024 87066 87136 87217 87288 87329 87333 87307 87266
2095.2793 87229 87214 87233 87282 87342 87379 87358 87263 87107 86926 86762
2100.5825 86642 86574 86548 86557 86603 86689 86814 86961 87097 87182 87191
2105.8860 87123 87000 86865 86763 86727 86767 86868 87000 87124 87208 87238
2111.1892 87222 87186 87159 87164 87201 87259 87315 87358 87382 87390 87381
2116.4924 87346 87269 87143 86979 86807 86662 86573 86551 86591 86680 86805
2121.7957 86951 87101 87234 87322 87344 87292 87175 87024 86881 86790 86780
2127.0991 86854 86986 87134 87257 87340 87396 87451 87521 87599 87654 87653
2132.4023 87578 87443 87286 87143 87035 86956 86889 86833 86811 86869 87049
2137.7056 87349 87710 88029 88211 88218 88099 87958 87901 87967 88120 88267
2143.0088 88321 88248 88076 87868 87682 87544 87450 87383 87329 87283 87246
2148.3123 87219 87205 87202 87211 87230 87265 87340 87491 87754 88135 88580
2153.6155 88978 89191 89118 88754 88213 87687 87363 87329 87529 87788 87900
2158.9187 87753 87410 87065 86912 87024 87333 87694 87967 88083 88057 87954
2164.2219 87849 87790 87804 87896 88060 88259 88430 88503 88444 88287 88135
2169.5254 88106 88267 88574 88883 89028 88918 88592 88186 87858 87704 87728
2174.8286 87867 88040 88181 88248 88209 88042 87761 87426 87140 86997 87037
2180.1318 87221 87462 87680 87838 87943 88008 88020 87952 87798 87595 87405
2185.4351 87267 87159 87020 86797 86512 86252 86124 86171 86344 86532 86639
2190.7385 86647 86621 86656 86806 87041 87275 87419 87440 87374 87294 87258
2196.0417 87268 87272 87195 86986 86658 86289 85991 85853 85895 86058 86239
2201.3450 86349 86361 86318 86291 86320 86383 86415 86357 86214 86054 85968
2206.6482 86001 86114 86207 86186 86032 85812 85639 85592 85671 85806 85913
2211.9517 85952 85947 85955 86015 86113 86186 86165 86019 85782 85537 85384
2217.2549 85393 85576 85888 86235 86517 86662 86647 86502 86289 86077 85918
2222.5581 85840 85845 85904 85966 85971 85879 85693 85475 85325 85329 85514
2227.8613 85823 86141 86347 86371 86230 86014 85838 85789 85891 86106 86358
2233.1648 86563 86661 86628 86480 86265 86051 85898 85843 85876 85950 86004
2238.4680 85999 85935 85853 85802 85809 85866 85940 86001 86041 86074 86125
2243.7712 86207 86309 86401 86447 86417 86308 86146 85978 85854 85804 85821
2249.0745 85869 85904 85904 85877 85856 85871 85933 86022 86105 86148 86137
2254.3779 86077 85989 85896 85818 85755 85693 85613 85504 85380 85282 85257
2259.6812 85338 85518 85751 85973 86125 86183 86160 86099 86046 86024 86029
2264.9844 86031 85996 85909 85783 85653 85558 85523 85552 85627 85720 85799
2270.2876 85829 85789 85677 85523 85383 85314 85345 85458 85592 85676 85667
2275.5911 85570 85432 85318 85269 85290 85351 85402 85407 85352 85255 85151
2280.8943 85072 85034 85034 85053 85071 85076 85064 85032 84979 84906 84825
2286.1975 84758 84736 84777 84874 84992 85085 85117 85079 84991 84886 84795
2291.5007 84733 84698 84683 84677 84673 84669 84661 84648 84635 84630 84643
2296.8042 84677 84728 84782 84822 84839 84829 84798 84760 84725 84703 84694
2302.1074 84692 84686 84669 84637 84594 84548 84508 84478 84457 84441 84426
2307.4106 84411 84393 84377 84363 84356 84361 84381 84412 84446 84470 84476
2312.7139 84467 84457 84461 84487 84529 84565 84568 84522 84431 84319 84224
2318.0173 84180 84195 84248 84300 84312 84272 84202 84143 84131 84171 84240
2323.3206 84302 84334 84339 84338 84354 84392 84443 84491 84525 84545 84558
2328.6238 84573 84588 84598 84589 84554 84491 84402 84294 84175 84055 83947
2333.9270 83862 83812 83804 83839 83907 83990 84067 84120 84141 84130 84091
2339.2305 84030 83959 83896 83863 83872 83924 84002 84087 84161 84216 84248
2344.5337 84261 84260 84259 84266 84284 84300 84293 84250 84166 84049 83920
2349.8369 83813 83762 83791 83887 83997 84056 84021 83898 83737 83603 83537
2355.1401 83533 83540 83505 83413 83309 83280 83399 83672 84024 84322 84447
2360.4436 84356 84100 83786 83511 83319 83200 83122 83074 83080 83174 83361
2365.7468 83595 83804 83928 83956 83926 83886 83864 83854 83831 83784 83723
2371.0500 83678 83672 83708 83768 83824 83857 83863 83847 83815 83769 83711
2376.3533 83641 83571 83515 83490 83502 83542 83591 83626 83638 83629 83615
2381.6567 83612 83627 83653 83677 83691 83693 83694 83703 83721 83740 83747
2386.9600 83733 83699 83652 83603 83561 83532 83519 83521 83538 83564 83589
2392.2632 83603 83597 83571 83535 83501 83482 83480 83489 83501 83507 83506
2397.5664 83503 83504 83512 83520 83517 83494 83454 83413 83392 83402 83439
2402.8699 83485 83515 83517 83496 83468 83451 83447 83450 83447 83436 83425
2408.1731 83428 83451 83487 83519 83528 83508 83465 83417 83377 83355 83349
2413.4763 83353 83360 83367 83374 83385 83403 83427 83452 83468 83467 83448
2418.7795 83419 83396 83391 83411 83448 83488 83512 83508 83468 83397 83307
2424.0830 83214 83138 83092 83084 83113 83171 83242 83310 83359 83381 83376
2429.3862 83353 83324 83296 83270 83237 83193 83141 83092 83063 83064 83089
2434.6895 83123 83150 83165 83173 83188 83219 83264 83310 83340 83342 83318
2439.9927 83276 83228 83183 83146 83118 83103 83104 83120 83146 83169 83180
2445.2961 83174 83157 83140 83129 83126 83123 83110 83085 83053 83022 82998
2450.5994 82982 82972 82966 82964 82974 82997 83032 83067 83090 83092 83072
2455.9026 83040 83005 82975 82953 82937 82923 82908 82894 82880 82867 82854
2461.2058 82842 82826 82807 82782 82755 82732 82722 82732 82765 82813 82860
2466.5093 82889 82889 82862 82818 82773 82737 82714 82696 82677 82647 82606
2471.8125 82563 82528 82513 82518 82537 82553 82555 82540 82518 82504 82508
2477.1157 82523 82538 82538 82522 82499 82485 82485 82493 82494 82479 82450
2482.4189 82422 82411 82423 82451 82476 82478 82447 82389 82320 82260 82227
2487.7224 82228 82256 82291 82311 82305 82271 82225 82189 82179 82201 82249
2493.0256 82307 82358 82388 82391 82367 82324 82272 82221 82178 82146 82125
2498.3289 82116 82121 82144 82185 82240 82294 82330 82331 82294 82228 82157
2503.6321 82106 82093 82120 82171 82222 82251 82243 82198 82128 82050 81988
2508.9355 81960 81975 82030 82111 82198 82273 82321 82339 82330 82302 82265
2514.2388 82227 82192 82162 82136 82112 82084 82050 82007 81959 81913 81881
2519.5420 81874 81893 81930 81967 81985 81973 81935 81886 81843 81816 81806
2524.8452 81807 81809 81808 81806 81806 81815 81831 81852 81867 81867 81847
2530.1487 81804 81747 81685 81633 81601 81593 81607 81633 81661 81679 81686
2535.4519 81685 81687 81706 81747 81802 81851 81871 81848 81788 81714 81654
2540.7551 81627 81629 81639 81634 81605 81560 81523 81511 81526 81553 81567
2546.0583 81554 81516 81467 81428 81408 81407 81412 81409 81390 81358 81329
2551.3618 81321 81351 81422 81520 81619 81691 81720 81709 81673 81636 81614
2556.6650 81608 81612 81620 81632 81655 81694 81749 81807 81856 81884 81894
2561.9683 81898 81909 81934 81970 82008 82034 82041 82026 81998 81967 81948
2567.2715 81954 81989 82044 82104 82150 82167 82152 82114 82066 82019 81979
2572.5750 81950 81933 81927 81935 81951 81968 81979 81978 81964 81941 81915
2577.8782 81891 81871 81857 81849 81848 81851 81856 81853 81834 81794 81733
2583.1814 81664 81603 81565 81559 81579 81612 81640 81652 81646 81624 81596
2588.4849 81567 81539 81513 81486 81459 81429 81401 81376 81359 81351 81351
2593.7881 81351 81347 81336 81325 81319 81323 81336 81349 81356 81357 81356
2599.0913 81360 81375 81398 81424 81446 81457 81459 81456 81452 81451 81452
2604.3945 81449 81436 81412 81379 81348 81325 81311 81299 81278 81246 81207
2609.6980 81176 81165 81178 81207 81236 81251 81246 81227 81206 81191 81186
2615.0012 81186 81183 81174 81155 81131 81106 81081 81056 81026 80992 80954
2620.3044 80922 80901 80897 80904 80914 80914 80901 80880 80860 80851 80854
2625.6077 80861 80860 80843 80813 80779 80755 80748 80756 80768 80773 80763
2630.9111 80740 80715 80699 80700 80716 80740 80762 80775 80778 80772 80760
2636.2144 80744 80723 80698 80673 80652 80642 80646 80661 80685 80710 80733
2641.5176 80752 80767 80781 80797 80816 80836 80856 80873 80887 80895 80895
2646.8208 80885 80860 80823 80779 80737 80704 80684 80677 80679 80686 80695
2652.1243 80706 80718 80729 80741 80754 80769 80790 80816 80846 80875 80900
2657.4275 80921 80939 80958 80978 80999 81017 81029 81034 81034 81031 81031
2662.7307 81035 81044 81060 81080 81102 81119 81124 81115 81092 81065 81044
2668.0339 81038 81046 81062 81074 81074 81062 81041 81021 81007 81003 81008
2673.3374 81018 81027 81032 81029 81019 81002 80985 80970 80962 80963 80974
2678.6406 80995 81023 81052 81074 81080 81069 81048 81031 81028 81045 81076
2683.9438 81108 81128 81130 81119 81103 81095 81098 81113 81132 81150 81165
2689.2471 81176 81186 81198 81212 81225 81236 81241 81243 81243 81245 81251
2694.5505 81261 81275 81291 81313 81341 81375 81411 81442 81464 81475 81476
2699.8538 81473 81470 81469 81471 81477 81487 81501 81517 81532 81542 81544
2705.1570 81539 81527 81511 81492 81473 81456 81444 81437 81431 81423 81407
2710.4602 81380 81343 81301 81260 81224 81199 81186 81184 81189 81197 81200
2715.7637 81193 81175 81145 81110 81074 81044 81023 81011 81006 81005 81004
2721.0669 81003 80999 80993 80982 80967 80948 80930 80919 80918 80929 80946
2726.3701 80960 80967 80965 80959 80956 80961 80976 80995 81011 81017 81009
2731.6733 80990 80967 80947 80938 80942 80956 80976 80995 81010 81021 81029
2736.9768 81035 81040 81045 81050 81055 81058 81057 81050 81037 81021 81007
2742.2800 80997 80993 80991 80987 80976 80960 80945 80937 80941 80957 80980
2747.5833 81004 81020 81026 81021 81009 80995 80984 80977 80971 80959 80938
2752.8865 80910 80884 80869 80870 80884 80899 80903 80888 80858 80824 80798
2758.1899 80786 80788 80795 80802 80805 80806 80804 80799 80789 80772 80752
2763.4932 80739 80740 80759 80793 80829 80853 80855 80832 80790 80739 80692
2768.7964 80658 80639 80635 80642 80655 80671 80689 80709 80729 80746 80761
2774.0996 80774 80787 80804 80827 80854 80881 80902 80913 80914 80910 80905
2779.4031 80903 80905 80912 80920 80928 80937 80948 80964 80989 81024 81066
2784.7063 81112 81158 81200 81234 81256 81268 81270 81269 81269 81274 81278
2790.0095 81278 81268 81248 81226 81216 81226 81260 81310 81365 81410 81441
2795.3127 81460 81474 81492 81516 81543 81565 81576 81575 81572 81574 81590
2800.6162 81617 81645 81665 81673 81674 81679 81697 81730 81772 81813 81846
2805.9194 81870 81891 81913 81940 81969 81996 82018 82038 82061 82091 82126
2811.2227 82162 82193 82216 82234 82253 82280 82319 82371 82433 82499 82561
2816.5259 82614 82653 82679 82693 82705 82722 82753 82801 82862 82930 82994
2821.8293 83045 83076 83089 83088 83083 83082 83090 83107 83128 83149 83165
2827.1326 83175 83180 83177 83165 83145 83126 83120 83138 83186 83256 83334
2832.4358 83402 83447 83466 83469 83469 83475 83493 83520 83548 83572 83586
2837.7390 83592 83594 83597 83606 83618 83633 83650 83667 83686 83707 83727
2843.0425 83746 83763 83783 83808 83837 83863 83876 83863 83823 83766 83712
2848.3457 83678 83673 83693 83723 83747 83754 83745 83729 83715 83710 83715
2853.6489 83722 83724 83718 83706 83697 83695 83699 83702 83693 83662 83612
2858.9521 83551 83495 83457 83441 83442 83445 83438 83412 83372 83327 83291
2864.2556 83269 83259 83252 83238 83213 83177 83139 83106 83083 83069 83064
2869.5588 83063 83062 83058 83049 83035 83016 82996 82976 82956 82937 82917
2874.8621 82895 82869 82841 82813 82789 82775 82770 82774 82778 82775 82761
2880.1653 82740 82719 82703 82696 82696 82702 82713 82732 82760 82791 82816
2885.4688 82824 82813 82789 82765 82754 82763 82789 82823 82854 82874 82880
2890.7720 82875 82866 82860 82864 82881 82909 82946 82988 83032 83078 83120
2896.0752 83155 83178 83185 83180 83168 83158 83156 83165 83179 83190 83191
2901.3784 83179 83156 83131 83115 83117 83145 83199 83271 83349 83418 83464
2906.6819 83484 83481 83470 83464 83474 83501 83536 83570 83597 83621 83645
2911.9851 83675 83710 83748 83786 83825 83871 83925 83985 84040 84083 84109
2917.2883 84123 84135 84153 84176 84201 84222 84236 84243 84250 84261 84282
2922.5916 84312 84351 84393 84431 84462 84487 84513 84546 84587 84627 84656
2927.8950 84666 84662 84662 84684 84740 84824 84919 85002 85057 85078 85068
2933.1982 85041 85011 84993 84998 85026 85069 85115 85150 85169 85176 85183
2938.5015 85196 85218 85244 85268 85289 85306 85322 85332 85333 85319 85292
2943.8047 85258 85228 85206 85193 85184 85176 85169 85165 85168 85176 85183
2949.1082 85181 85166 85139 85105 85071 85038 85005 84971 84939 84913 84900
2954.4114 84901 84910 84913 84898 84859 84798 84731 84672 84635 84624 84636
2959.7146 84662 84693 84717 84728 84721 84698 84665 84630 84602 84588 84587
2965.0178 84594 84602 84606 84603 84594 84581 84566 84555 84549 84555 84573
2970.3213 84606 84650 84703 84761 84820 84878 84932 84978 85017 85049 85077
2975.6245 85103 85125 85138 85138 85126 85109 85097 85100 85120 85153 85191
2980.9277 85229 85260 85281 85289 85280 85254 85217 85180 85155 85151 85169
2986.2310 85203 85242 85277 85303 85314 85312 85295 85266 85226 85180 85131
2991.5344 85081 85030 84978 84925 84871 84822 84780 84745 84714 84684 84651
2996.8376 84615 84577 84539 84503 84468 84433 84395 84355 84315 84276 84243
3002.1409 84217 84196 84177 84153 84124 84090 84057 84027 84000 83972 83938
3007.4441 83900 83862 83826 83793 83757 83712 83659 83604 83560 83535 83534
3012.7476 83549 83572 83595 83614 83627 83636 83640 83639 83635 83629 83619
3018.0508 83602 83573 83531 83480 83433 83405 83412 83457 83534 83624 83702
3023.3540 83749 83757 83732 83689 83650 83630 83635 83660 83693 83724 83744
3028.6572 83756 83763 83771 83782 83794 83801 83795 83776 83749 83722 83708
3033.9607 83713 83739 83778 83822 83861 83892 83919 83947 83983 84028 84078
3039.2639 84126 84164 84190 84208 84224 84246 84277 84310 84335 84342 84325
3044.5671 84289 84246 84212 84197 84204 84226 84256 84282 84298 84298 84279
3049.8704 84246 84209 84182 84176 84192 84218 84234 84220 84166 84077 83972
3055.1738 83875 83805 83775 83783 83822 83881 83952 84027 84100 84165 84213
3060.4771 84239 84241 84221 84189 84153 84121 84097 84085 84083 84092 84108
3065.7803 84127 84145 84154 84144 84109 84046 83960 83865 83779 83715 83676
3071.0835 83645 83601 83528 83434 83344 83293 83299 83354 83426 83480 83499
3076.3870 83488 83468 83457 83458 83459 83438 83385 83303 83207 83115 83041
3081.6902 82990 82959 82935 82905 82861 82805 82748 82708 82698 82717 82747
3086.9934 82767 82760 82729 82690 82665 82667 82693 82730 82764 82786 82797
3092.2966 82805 82820 82847 82889 82944 83006 83068 83125 83177 83227 83280
3097.6001 83337 83394 83446 83487 83522 83563 83626 83716 83828 83941 84034
3102.9033 84095 84128 84155 84197 84268 84365 84473 84575 84662 84732 84792
3108.2065 84844 84884 84904 84896 84861 84804 84737 84670 84613 84573 84557
3113.5098 84566 84592 84619 84628 84606 84551 84475 84398 84335 84294 84273
3118.8132 84264 84256 84240 84210 84164 84105 84038 83973 83918 83878 83851
3124.1165 83833 83817 83798 83771 83734 83690 83647 83614 83601 83611 83633
3129.4197 83652 83648 83613 83554 83493 83456 83462 83508 83576 83637 83672
3134.7229 83679 83670 83664 83676 83707 83750 83792 83824 83847 83863 83879
3140.0264 83895 83907 83912 83914 83922 83949 84001 84069 84132 84165 84151
3145.3296 84096 84020 83954 83924 83937 83980 84030 84062 84060 84022 83957
3150.6328 83882 83812 83757 83718 83692 83675 83665 83663 83671 83690 83717
3155.9360 83746 83771 83788 83801 83812 83824 83835 83838 83826 83796 83753
3161.2395 83709 83675 83660 83664 83681 83702 83721 83738 83751 83762 83767
3166.5427 83759 83736 83696 83646 83593 83546 83510 83487 83474 83464 83450
3171.8459 83424 83382 83329 83277 83239 83221 83219 83219 83209 83184 83152
3177.1492 83125 83114 83118 83125 83121 83095 83047 82989 82936 82899 82885
3182.4526 82890 82902 82910 82901 82872 82829 82783 82746 82725 82719 82723
3187.7559 82729 82733 82735 82743 82762 82795 82836 82874 82900 82915 82924
3193.0591 82941 82972 83016 83063 83103 83130 83147 83164 83187 83218 83252
3198.3623 83283 83305 83317 83324 83332 83348 83382 83436 83507 83581 83642
3203.6658 83671 83663 83627 83582 83551 83547 83572 83612 83650 83673 83676
3208.9690 83661 83635 83604 83575 83552 83543 83554 83593 83656 83733 83804
3214.2722 83852 83865 83846 83801 83746 83693 83658 83651 83677 83734 83805
3219.5754 83870 83912 83927 83921 83908 83900 83901 83904 83902 83891 83874
3224.8789 83856 83844 83838 83838 83843 83854 83875 83904 83937 83964 83975
3230.1821 83967 83939 83900 83859 83826 83809 83811 83830 83858 83879 83882
3235.4854 83859 83812 83750 83687 83632 83589 83562 83555 83572 83614 83670
3240.7886 83719 83732 83692 83598 83472 83345 83251 83209 83216 83255 83298
3246.0920 83321 83312 83275 83221 83168 83126 83096 83071 83040 82995 82940
3251.3953 82883 82835 82801 82780 82765 82747 82724 82696 82668 82645 82630
3256.6985 82618 82600 82563 82502 82418 82324 82235 82163 82108 82062 82011
3262.0017 81947 81871 81790 81716 81657 81613 81577 81538 81490 81427 81353
3267.3052 81270 81185 81102 81023 80954 80899 80862 80842 80826 80799 80746
3272.6084 80664 80561 80459 80377 80326 80304 80300 80303 80304 80302 80305
3277.9116 80319 80349 80396 80455 80512 80557 80583 80590 80588 80591 80612
3283.2148 80659 80738 80847 80981 81126 81266 81385 81475 81540 81597 81665
3288.5183 81753 81858 81963 82054 82124 82182 82247 82335 82450 82583 82715
3293.8215 82827 82912 82975 83027 83077 83128 83175 83209 83226 83226 83213
3299.1248 83190 83159 83120 83077 83036 83004 82982 82966 82946 82913 82865
3304.4280 82802 82729 82646 82550 82440 82314 82177 82034 81887 81736 81574
3309.7314 81402 81222 81043 80870 80701 80528 80342 80142 79937 79744 79575
3315.0347 79431 79302 79177 79053 78939 78853 78813 78829 78899 79014 79165
3320.3379 79343 79543 79765 80015 80298 80620 80978 81362 81753 82133 82490
3325.6411 82822 83136 83440 83736 84015 84267 84478 84646 84774 84874 84957
3330.9446 85027 85080 85107 85100 85059 84986 84888 84767 84625 84458 84268
3336.2478 84063 83854 83650 83454 83262 83062 82846 82608 82354 82101 81867
3341.5510 81666 81505 81380 81280 81195 81122 81061 81014 80984 80972 80977
3346.8542 81001 81043 81101 81169 81237 81297 81349 81400 81466 81565 81709
3352.1577 81906 82161 82475 82852 83292 83790 84330 84884 85421 85915 86356
3357.4609 86749 87110 87452 87782 88098 88390 88649 88865 89037 89171 89279
3362.7642 89376 89475 89581 89685 89775 89838 89871 89885 89894 89913 89948
3368.0674 89994 90041 90080 90104 90114 90109 90094 90072 90048 90029 90018
3373.3708 90018 90023 90027 90022 90008 89986 89964 89948 89943 89949 89963
3378.6741 89980 89997 90009 90014 90011 90000 89984 89963 89941 89918 89898
3383.9773 89887 89888 89902 89927 89954 89975 89984 89981 89964 89937 89901
3389.2805 89857 89812 89772 89744 89730 89731 89740 89751 89759 89764 89766
3394.5840 89766 89764 89752 89728 89691 89650 89618 89605 89613 89634 89657
3399.8872 89669 89669 89661 89654 89651 89652 89650 89637 89611 89573 89529
3405.1904 89486 89449 89422 89410 89414 89433 89463 89496 89525 89547 89553
3410.4937 89540 89505 89452 89392 89345 89326 89337 89366 89391 89393 89365
3415.7971 89317 89266 89226 89200 89182 89165 89151 89143 89151 89176 89213
3421.1003 89252 89282 89300 89306 89306 89300 89287 89264 89227 89177 89120
3426.4036 89069 89036 89028 89040 89059 89069 89062 89041 89017 89002 88997
3431.7068 88996 88988 88966 88934 88903 88882 88878 88888 88907 88932 88958
3437.0103 88975 88976 88953 88908 88853 88809 88796 88817 88863 88910 88933
3442.3135 88921 88875 88810 88739 88672 88612 88568 88553 88577 88639 88716
3447.6167 88773 88787 88760 88714 88682 88682 88713 88753 88779 88774 88743
3452.9199 88702 88672 88660 88665 88676 88678 88664 88631 88587 88545 88520
3458.2234 88522 88547 88583 88616 88634 88635 88626 88615 88608 88600 88588
3463.5266 88570 88553 88545 88555 88581 88610 88624 88614 88579 88535 88499
3468.8298 88483 88486 88500 88514 88521 88522 88522 88528 88538 88547 88548
3474.1331 88532 88499 88454 88405 88368 88352 88357 88377 88398 88405 88395
3479.4365 88374 88356 88351 88363 88383 88399 88401 88388 88365 88339 88311
3484.7397 88280 88247 88213 88187 88177 88188 88215 88245 88265 88266 88251
3490.0430 88228 88212 88213 88236 88273 88312 88339 88346 88330 88301 88274
3495.3462 88264 88279 88317 88361 88392 88397 88373 88327 88271 88216 88167
3500.6497 88125 88088 88060 88051 88070 88116 88178 88231 88259 88257 88237
3505.9529 88217 88216 88239 88279 88318 88335 88320 88277 88219 88161 88108
3511.2561 88061 88021 87994 87987 88010 88062 88132 88201 88251 88274 88274
3516.5593 88266 88261 88258 88244 88203 88131 88040 87959 87914 87916 87955
3521.8628 88011 88059 88090 88110 88131 88154 88170 88162 88121 88051 87975
3527.1660 87921 87905 87923 87955 87981 87991 87996 88012 88045 88091 88130
3532.4692 88142 88122 88084 88049 88038 88055 88088 88116 88129 88130 88130
3537.7725 88136 88142 88137 88111 88069 88023 87987 87964 87943 87910 87861
3543.0759 87804 87764 87760 87798 87864 87934 87989 88024 88042 88050 88047
3548.3792 88029 87992 87940 87883 87838 87824 87852 87916 87994 88056 88083
3553.6824 88070 88029 87977 87936 87919 87929 87961 87998 88027 88041 88039
3558.9856 88029 88018 88009 87998 87980 87951 87912 87869 87834 87819 87830
3564.2891 87863 87907 87941 87947 87918 87874 87848 87860 87900 87944 87978
3569.5923 87999 88014 88028 88039 88041 88027 87995 87953 87909 87873 87850
3574.8955 87843 87853 87880 87917 87950 87960 87936 87881 87817 87769 87759
3580.1990 87790 87848 87915 87970 87997 87981 87914 87797 87645 87482 87336
3585.5022 87235 87206 87262 87388 87543 87682 87779 87829 87839 87821 87787
3590.8054 87752 87729 87730 87756 87802 87855 87900 87930 87946 87946 87930
3596.1086 87896 87841 87761 87658 87540 87425 87335 87295 87315 87389 87492
3601.4121 87598 87688 87756 87803 87834 87850 87851 87837 87806 87756 87685
3606.7153 87596 87507 87445 87439 87495 87588 87676 87732 87749 87733 87689
3612.0186 87623 87541 87460 87407 87401 87441 87508 87577 87625 87644 87642
3617.3218 87634 87637 87660 87696 87731 87755 87767 87773 87777 87782 87787
3622.6252 87790 87792 87788 87775 87748 87702 87630 87528 87397 87242 87087
3627.9285 86982 87010 87186 87385 87493 87512 87490 87469 87477 87534 87643
3633.2317 87779 87892 87934 87898 87808 87697 87597 87528 87501 87513 87550
3638.5349 87597 87643 87679 87697 87688 87647 87579 87496 87419 87358 87315
3643.8384 87285 87265 87262 87287 87353 87450 87533 87531 87406 87193 86976
3649.1416 86843 86872 87063 87321 87531 87651 87694 87688 87655 87612 87571
3654.4448 87544 87540 87567 87614 87655 87663 87632 87571 87495 87423 87376
3659.7480 87373 87415 87481 87538 87563 87551 87518 87493 87500 87550 87630
3665.0515 87714 87772 87782 87734 87632 87490 87340 87228 87208 87310 87487
3670.3547 87632 87670 87620 87538 87464 87415 87400 87426 87504 87634 87751
3675.6580 87768 87705 87619 87537 87469 87420 87398 87409 87449 87504 87557
3680.9612 87591 87594 87558 87487 87398 87324 87289 87296 87319 87321 87284
3686.2646 87216 87157 87167 87288 87478 87622 87649 87590 87516 87483 87501
3691.5679 87538 87553 87538 87502 87464 87433 87414 87404 87401 87407 87423
3696.8711 87445 87466 87471 87453 87410 87352 87296 87263 87277 87346 87446
3702.1743 87529 87563 87551 87512 87466 87431 87414 87416 87431 87455 87489
3707.4778 87534 87584 87618 87607 87534 87411 87277 87179 87158 87217 87310
3712.7810 87380 87411 87418 87418 87421 87426 87425 87411 87385 87352 87327
3718.0842 87318 87328 87344 87351 87338 87302 87246 87178 87109 87050 87003
3723.3875 86968 86948 86955 87004 87101 87224 87332 87392 87408 87403 87394
3728.6909 87381 87349 87278 87161 87013 86883 86834 86889 87002 87114 87191
3733.9941 87236 87265 87292 87313 87321 87322 87327 87342 87357 87362 87350
3739.2974 87327 87302 87282 87262 87226 87157 87051 86913 86773 86706 86825
3744.6006 87096 87302 87366 87339 87267 87180 87097 87052 87084 87208 87370
3749.9041 87484 87504 87446 87365 87329 87367 87437 87485 87488 87449 87380
3755.2073 87294 87205 87126 87066 87025 87009 87034 87115 87246 87386 87477
3760.5105 87500 87478 87438 87397 87360 87317 87266 87208 87164 87157 87197
3765.8137 87263 87312 87322 87299 87266 87254 87295 87399 87524 87601 87601
3771.1172 87547 87480 87429 87404 87400 87397 87382 87353 87324 87312 87322
3776.4204 87345 87361 87354 87324 87288 87275 87300 87348 87389 87398 87373
3781.7236 87319 87249 87180 87129 87110 87128 87169 87211 87235 87239 87235
3787.0269 87236 87252 87282 87318 87350 87370 87373 87359 87332 87296 87257
3792.3303 87226 87206 87197 87190 87174 87140 87093 87052 87042 87071 87115
3797.6335 87135 87106 87025 86901 86758 86642 86628 86783 87052 87278 87379
3802.9368 87376 87312 87219 87117 87026 86974 86996 87112 87273 87389 87418
3808.2400 87387 87335 87288 87255 87239 87236 87246 87266 87288 87299 87286
3813.5435 87239 87162 87077 87027 87069 87206 87350 87422 87405 87316 87171
3818.8467 86983 86779 86624 86627 86854 87174 87395 87469 87448 87392 87336
3824.1499 87302 87291 87295 87296 87281 87246 87203 87167 87144 87130 87117
3829.4531 87105 87100 87108 87130 87148 87143 87115 87091 87098 87154 87240
3834.7566 87304 87296 87213 87102 87028 87042 87140 87255 87320 87333 87329
3840.0598 87335 87345 87339 87308 87266 87239 87243 87274 87301 87298 87266
3845.3630 87226 87200 87195 87207 87223 87231 87224 87197 87148 87068 86953
3850.6663 86802 86635 86502 86494 86732 87233 87734 87951 87899 87723 87519
3855.9697 87337 87207 87145 87146 87179 87201 87189 87140 87076 87027 87025
3861.2729 87073 87137 87170 87152 87099 87059 87085 87192 87320 87389 87369
3866.5762 87285 87168 87050 86959 86931 87005 87170 87324 87375 87326 87221
3871.8794 87096 86981 86913 86931 87044 87197 87313 87362 87359 87327 87284
3877.1829 87234 87180 87124 87078 87060 87082 87131 87163 87152 87107 87051
3882.4861 86999 86957 86928 86915 86932 87002 87125 87266 87370 87415 87405
3887.7893 87356 87281 87194 87109 87045 87025 87053 87102 87124 87096 87035
3893.0925 86976 86952 86980 87051 87137 87200 87219 87193 87143 87098 87086
3898.3960 87112 87147 87150 87105 87031 86962 86923 86916 86927 86937 86948
3903.6992 86982 87059 87172 87288 87370 87404 87396 87361 87314 87261 87210
3909.0024 87169 87147 87150 87175 87211 87244 87265 87268 87254 87227 87187
3914.3057 87135 87079 87034 87019 87051 87122 87198 87248 87260 87242 87214
3919.6091 87193 87187 87190 87188 87172 87139 87098 87065 87060 87101 87180
3924.9124 87266 87320 87317 87261 87176 87097 87057 87074 87141 87223 87282
3930.2156 87291 87249 87173 87094 87037 87017 87034 87077 87132 87188 87234
3935.5188 87261 87265 87246 87210 87168 87131 87108 87101 87107 87124 87149
3940.8223 87185 87234 87292 87345 87369 87348 87287 87203 87122 87063 87037
3946.1255 87043 87067 87094 87112 87124 87140 87169 87207 87242 87261 87261
3951.4287 87251 87242 87239 87233 87206 87148 87060 86965 86889 86857 86877
3956.7319 86937 87016 87091 87144 87169 87166 87142 87104 87068 87047 87052
3962.0354 87087 87144 87207 87259 87288 87282 87241 87170 87087 87010 86956
3967.3386 86936 86949 86989 87039 87085 87115 87123 87111 87087 87062 87049
3972.6418 87053 87074 87099 87118 87124 87121 87117 87121 87138 87163 87189
3977.9451 87207 87216 87215 87205 87191 87175 87158 87144 87132 87125 87124
3983.2485 87131 87151 87185 87232 87285 87331 87359 87363 87345 87315 87284
3988.5518 87264 87258 87263 87273 87280 87283 87287 87297 87316 87341 87362
3993.8550 87369 87357 87326 87282 87230 87176 87124 87082 87055 87046 87052
3999.1582 87063 87071 87076
##END= 
