##TITLE= INC25
##JCAMP-DX= 4.24
##DATA TYPE= INFRARED SPECTRUM
##ORIGIN= JASCO
##OWNER= 
##DATE= 22/04/12
##TIME= 12:28:22
##SPECTROMETER/DATA SYSTEM= 
##RESOLUTION= 
##DELTAX=   0.48211674
##XUNITS= 1/CM
##YUNITS= TRANSMITTANCE
##XFACTOR= 1.00000
##YFACTOR= 0.0001
##FIRSTX=   599.7532
##LASTX=  4000.1226
##NPOINTS=     7054
##FIRSTY=      0.93348
##MAXY=      1.03617
##MINY=      0.72129
##XYDATA= (X++(Y..Y))
599.7532 9335 9320 9303 9286 9269 9246 9214 9172 9126 9083 9050 9023 8998 8970
606.5029 8942 8925 8931 8966 9025 9093 9153 9191 9204 9199 9185 9174 9169 9171
613.2525 9176 9182 9185 9185 9181 9175 9170 9169 9178 9204 9248 9307 9376 9447
620.0021 9511 9560 9583 9579 9554 9521 9495 9487 9493 9501 9495 9466 9422 9382
626.7518 9365 9380 9416 9453 9469 9455 9413 9353 9288 9225 9168 9120 9089 9081
633.5014 9099 9143 9202 9267 9330 9388 9442 9493 9537 9569 9584 9580 9564 9548
640.2510 9544 9555 9576 9595 9602 9591 9569 9546 9534 9537 9549 9562 9568 9564
647.0007 9556 9548 9548 9556 9572 9593 9611 9620 9613 9591 9556 9519 9486 9459
653.7503 9431 9393 9341 9279 9220 9180 9168 9188 9232 9289 9344 9387 9411 9421
660.4999 9425 9434 9457 9493 9535 9574 9604 9623 9636 9645 9653 9661 9669 9685
667.2496 9719 9781 9831 9805 9730 9656 9598 9558 9535 9532 9546 9573 9604 9631
673.9992 9652 9670 9690 9718 9753 9782 9793 9777 9737 9684 9633 9594 9571 9563
680.7488 9573 9603 9651 9707 9752 9765 9738 9677 9601 9526 9455 9377 9270 9124
687.4985 8945 8764 8623 8554 8574 8677 8837 9023 9204 9360 9479 9562 9619 9660
694.2481 9691 9709 9705 9678 9635 9596 9580 9596 9641 9703 9772 9847 9927
700.5156 10008 10076 10113 10108 10063 9997 9932 9879 9840 9808 9781 9762 9761
706.7831 9783 9823 9868 9903 9918 9913 9895 9873 9853 9834 9814 9793 9768 9739
713.5328 9710 9685 9669 9666 9676 9695 9716 9734 9745 9751 9757 9760 9759 9748
720.2824 9728 9703 9683 9676 9683 9697 9711 9717 9712 9699 9682 9667 9653 9641
727.0320 9629 9619 9617 9625 9643 9665 9685 9696 9694 9683 9668 9652 9640 9630
733.7817 9620 9608 9593 9576 9558 9543 9531 9519 9506 9492 9479 9467 9461 9462
740.5313 9471 9487 9509 9535 9565 9595 9625 9651 9674 9694 9712 9727 9739 9748
747.2809 9756 9764 9777 9794 9812 9828 9835 9827 9803 9765 9717 9665 9616 9573
754.0306 9538 9512 9495 9486 9487 9498 9520 9551 9589 9628 9663 9691 9711 9727
760.7802 9741 9760 9781 9804 9821 9830 9826 9813 9792 9769 9746 9726 9709 9695
767.5298 9684 9671 9654 9629 9597 9561 9525 9491 9461 9433 9406 9377 9347 9313
774.2795 9275 9232 9183 9131 9077 9022 8968 8916 8868 8829 8800 8784 8780 8785
781.0291 8795 8808 8823 8839 8856 8872 8889 8907 8930 8959 8996 9038 9082 9123
787.7787 9160 9196 9230 9265 9296 9317 9325 9319 9305 9289 9281 9283 9293 9304
794.5284 9311 9310 9302 9291 9284 9283 9292 9309 9331 9355 9379 9402 9424 9445
801.2780 9463 9479 9492 9503 9514 9525 9536 9544 9549 9548 9542 9531 9515 9495
808.0276 9472 9450 9433 9429 9441 9467 9500 9531 9556 9572 9584 9596 9610 9625
814.7773 9637 9642 9639 9628 9615 9602 9592 9587 9588 9594 9606 9620 9632 9639
821.5269 9641 9638 9634 9631 9631 9634 9636 9636 9631 9623 9612 9598 9583 9567
828.2766 9549 9530 9513 9497 9485 9478 9475 9477 9483 9491 9497 9500 9499 9497
835.0262 9495 9498 9504 9513 9519 9521 9514 9501 9481 9458 9432 9407 9385 9371
841.7758 9365 9369 9380 9394 9406 9414 9417 9414 9406 9394 9378 9359 9339 9321
848.5255 9306 9296 9290 9286 9284 9281 9279 9277 9274 9267 9252 9228 9193 9148
855.2751 9096 9042 8992 8952 8926 8919 8930 8954 8987 9021 9050 9072 9083 9083
862.0247 9069 9038 8988 8921 8839 8749 8660 8576 8500 8434 8382 8356 8369 8433
868.7744 8549 8709 8890 9068 9223 9342 9424 9475 9503 9515 9518 9515 9509 9500
875.5240 9492 9485 9481 9479 9479 9480 9478 9473 9463 9449 9431 9411 9391 9370
882.2736 9348 9323 9294 9262 9227 9191 9156 9122 9090 9056 9021 8986 8955 8932
889.0233 8920 8922 8941 8975 9023 9080 9138 9191 9232 9260 9275 9278 9271 9256
895.7729 9232 9203 9170 9136 9103 9070 9036 8997 8954 8906 8858 8813 8777 8757
902.5225 8756 8777 8820 8881 8955 9033 9109 9175 9230 9273 9307 9335 9356 9371
909.2722 9378 9377 9370 9361 9354 9351 9353 9358 9363 9367 9366 9360 9347 9326
916.0218 9300 9269 9236 9204 9177 9155 9142 9138 9141 9151 9164 9176 9186 9190
922.7714 9186 9171 9145 9107 9058 9003 8947 8897 8858 8832 8821 8827 8849 8886
929.5211 8933 8988 9044 9100 9152 9200 9243 9282 9317 9350 9379 9405 9426 9443
936.2707 9455 9463 9466 9465 9460 9453 9444 9434 9422 9408 9391 9372 9350 9331
943.0203 9316 9309 9310 9317 9324 9325 9317 9298 9271 9242 9215 9198 9193 9199
949.7700 9217 9243 9274 9309 9345 9379 9409 9433 9449 9457 9457 9452 9444 9437
956.5196 9431 9429 9429 9431 9436 9441 9445 9448 9448 9445 9439 9429 9417 9401
963.2692 9383 9363 9342 9324 9310 9305 9309 9323 9346 9374 9402 9428 9449 9462
970.0189 9470 9474 9476 9476 9477 9476 9474 9467 9456 9439 9418 9396 9374 9353
976.7685 9331 9305 9271 9227 9173 9114 9054 8999 8954 8922 8903 8897 8902 8915
983.5181 8934 8955 8977 9000 9022 9044 9066 9089 9114 9141 9169 9197 9223 9249
990.2678 9276 9305 9336 9367 9394 9416 9433 9446 9457 9467 9477 9486 9493 9499
997.0174 9505 9510 9516 9521 9522 9520 9513 9503 9493 9486 9483 9484 9487 9490
1003.7670 9492 9492 9494 9496 9499 9501 9500 9495 9486 9476 9466 9461 9460
1010.0345 9462 9466 9469 9471 9471 9472 9476 9484 9495 9505 9511 9512 9508
1016.3021 9501 9494 9487 9481 9472 9461 9446 9430 9414 9401 9388 9375 9357
1022.5696 9336 9313 9293 9281 9280 9290 9307 9327 9344 9356 9359 9356 9347
1028.8372 9335 9320 9303 9283 9258 9229 9195 9160 9126 9094 9064 9032 8997
1035.1046 8958 8917 8876 8836 8800 8764 8726 8683 8635 8581 8522 8457 8385
1041.3722 8303 8212 8114 8015 7924 7848 7791 7754 7733 7725 7726 7736 7755
1047.6396 7787 7835 7901 7986 8085 8196 8311 8426 8536 8641 8738 8826 8905
1053.9072 8973 9032 9083 9127 9166 9200 9229 9254 9275 9292 9305 9313 9318
1060.1747 9318 9314 9308 9298 9287 9275 9263 9251 9242 9237 9237 9243 9254
1066.4423 9271 9290 9310 9331 9349 9365 9377 9384 9386 9385 9381 9377 9374
1072.7097 9373 9372 9371 9368 9361 9352 9340 9324 9303 9277 9245 9207 9166
1078.9773 9123 9078 9031 8980 8928 8879 8839 8814 8810 8827 8860 8904 8949
1085.2448 8992 9028 9057 9077 9088 9089 9081 9066 9048 9030 9017 9011 9013
1091.5123 9023 9042 9069 9104 9144 9186 9227 9264 9297 9325 9349 9370 9386
1097.7798 9399 9407 9410 9409 9404 9393 9376 9352 9321 9284 9240 9193 9144
1104.0474 9096 9056 9028 9015 9020 9040 9072 9109 9146 9180 9206 9222 9226
1110.3148 9218 9198 9172 9144 9120 9105 9100 9107 9124 9150 9184 9222 9261
1116.5824 9297 9327 9347 9360 9366 9370 9374 9378 9381 9380 9372 9358 9338
1122.8499 9314 9285 9254 9222 9190 9158 9125 9091 9055 9017 8979 8942 8909
1129.1174 8878 8847 8815 8780 8743 8707 8673 8645 8627 8621 8632 8662 8711
1135.3849 8777 8854 8938 9022 9102 9174 9237 9288 9329 9360 9382 9398 9409
1141.6525 9416 9422 9428 9433 9437 9439 9438 9433 9425 9415 9403 9391 9379
1147.9199 9367 9356 9346 9337 9330 9324 9322 9322 9324 9328 9334 9341 9349
1154.1875 9358 9365 9371 9374 9375 9372 9369 9366 9362 9359 9355 9350 9343
1160.4550 9332 9318 9300 9278 9253 9226 9199 9171 9143 9115 9086 9055 9024
1166.7225 8993 8965 8944 8932 8932 8944 8963 8986 9006 9019 9023 9017 9005
1172.9900 8988 8970 8953 8940 8930 8925 8923 8924 8928 8934 8941 8948 8953
1179.2576 8956 8954 8949 8940 8928 8914 8898 8880 8862 8845 8830 8818 8805
1185.5250 8788 8764 8730 8685 8629 8565 8497 8428 8361 8297 8240 8189 8148
1191.7926 8119 8105 8106 8121 8146 8175 8205 8233 8259 8287 8321 8362 8414
1198.0601 8476 8547 8623 8702 8779 8852 8919 8980 9034 9080 9120 9152 9177
1204.3276 9195 9206 9212 9211 9205 9195 9180 9161 9138 9113 9086 9056 9022
1210.5951 8983 8937 8886 8828 8765 8698 8628 8554 8476 8397 8317 8240 8169
1216.8627 8108 8058 8020 7993 7974 7962 7954 7950 7951 7958 7969 7983 7996
1223.1301 8003 8000 7984 7954 7911 7855 7789 7715 7638 7565 7504 7461 7442
1229.3977 7445 7468 7501 7538 7571 7597 7617 7635 7658 7691 7738 7801 7878
1235.6652 7966 8061 8157 8250 8334 8405 8463 8506 8535 8555 8566 8573 8577
1241.9327 8580 8585 8592 8604 8621 8640 8661 8681 8699 8713 8724 8732 8741
1248.2002 8754 8774 8804 8843 8889 8937 8985 9026 9060 9084 9099 9105 9100
1254.4678 9086 9061 9027 8986 8941 8896 8854 8818 8789 8766 8749 8737 8726
1260.7352 8714 8697 8670 8630 8574 8502 8416 8324 8236 8161 8109 8083 8081
1267.0028 8093 8108 8115 8107 8084 8049 8005 7957 7905 7850 7793 7739 7692
1273.2703 7657 7642 7650 7685 7749 7840 7950 8071 8186 8283 8347 8373 8359
1279.5378 8313 8251 8188 8143 8125 8142 8191 8270 8370 8484 8601 8715 8819
1285.8053 8911 8992 9064 9129 9188 9242 9289 9330 9364 9395 9422 9446 9466
1292.0729 9483 9496 9506 9514 9523 9531 9539 9546 9550 9551 9550 9546 9539
1298.3403 9529 9518 9504 9490 9476 9462 9447 9431 9413 9392 9370 9348 9327
1304.6079 9311 9299 9292 9291 9297 9309 9328 9354 9385 9420 9453 9484 9510
1310.8754 9532 9550 9564 9576 9584 9590 9591 9590 9585 9577 9567 9555 9540
1317.1429 9522 9503 9481 9457 9432 9408 9388 9372 9363 9360 9363 9371 9383
1323.4104 9398 9413 9426 9435 9439 9437 9430 9421 9409 9398 9388 9382 9378
1329.6780 9376 9374 9371 9366 9360 9351 9342 9332 9320 9307 9293 9278 9261
1335.9454 9242 9219 9191 9159 9121 9080 9037 8993 8955 8926 8908 8897 8890
1342.2130 8879 8862 8839 8810 8782 8757 8737 8720 8703 8683 8662 8641 8626
1348.4805 8619 8622 8635 8654 8678 8706 8740 8779 8822 8869 8917 8965 9010
1354.7480 9051 9085 9113 9134 9148 9156 9160 9159 9156 9151 9145 9137 9127
1361.0155 9112 9088 9053 9006 8948 8886 8826 8767 8708 8646 8581 8515 8451
1367.2831 8394 8347 8311 8290 8285 8296 8322 8360 8406 8457 8512 8569 8629
1373.5505 8689 8747 8798 8841 8876 8906 8932 8956 8978 8998 9017 9036 9058
1379.8181 9081 9107 9134 9161 9186 9210 9233 9255 9278 9300 9321 9340 9356
1386.0856 9370 9383 9393 9402 9409 9414 9417 9418 9415 9407 9394 9375 9352
1392.3531 9323 9284 9227 9145 9042 8939 8871 8855 8883 8943 9023 9117 9220
1398.6206 9319 9401 9457 9489 9506 9515 9518 9517 9513 9505 9492 9472 9445
1404.8882 9409 9371 9332 9294 9254 9208 9153 9088 9015 8937 8856 8776 8701
1411.1556 8634 8582 8550 8543 8559 8597 8652 8718 8792 8867 8940 9007 9065
1417.4232 9113 9151 9181 9200 9212 9219 9226 9236 9250 9266 9285 9307 9332
1423.6907 9356 9378 9395 9409 9421 9431 9440 9448 9454 9458 9460 9459 9456
1429.9583 9453 9449 9446 9442 9436 9425 9411 9394 9379 9367 9359 9354 9355
1436.2257 9365 9386 9413 9438 9460 9479 9495 9508 9517 9520 9519 9512 9502
1442.4933 9491 9479 9466 9453 9440 9425 9410 9392 9370 9340 9301 9259 9223
1448.7607 9202 9198 9208 9230 9262 9302 9348 9395 9438 9474 9503 9526 9544
1455.0283 9557 9566 9569 9567 9560 9552 9547 9542 9536 9527 9514 9498 9481
1461.2958 9464 9451 9443 9441 9444 9451 9460 9470 9480 9490 9501 9513 9525
1467.5634 9538 9550 9559 9566 9571 9573 9575 9577 9578 9580 9583 9585 9587
1473.8308 9588 9589 9589 9589 9589 9592 9597 9607 9619 9634 9650 9666 9682
1480.0984 9696 9707 9716 9723 9729 9734 9739 9743 9747 9750 9753 9755 9757
1486.3658 9759 9761 9762 9764 9767 9771 9774 9774 9769 9762 9755 9751 9749
1492.6334 9750 9752 9755 9758 9761 9764 9765 9766 9765 9763 9762 9762 9761
1498.9009 9760 9758 9756 9753 9751 9750 9749 9750 9752 9755 9759 9762 9766
1505.1685 9770 9772 9770 9764 9758 9756 9755 9755 9755 9754 9752 9751 9749
1511.4359 9748 9746 9743 9741 9740 9740 9742 9746 9752 9757 9760 9760 9758
1517.7035 9757 9759 9762 9766 9771 9776 9779 9778 9770 9762 9757 9755 9754
1523.9709 9755 9755 9754 9752 9749 9746 9745 9745 9745 9745 9745 9744 9744
1530.2385 9744 9744 9746 9747 9750 9752 9752 9750 9748 9745 9744 9744 9745
1536.5060 9748 9752 9758 9764 9770 9771 9765 9756 9753 9754 9756 9755 9752
1542.7736 9747 9743 9739 9736 9733 9730 9727 9725 9724 9725 9727 9730 9733
1549.0410 9734 9733 9729 9725 9723 9723 9726 9730 9733 9734 9731 9725 9719
1555.3086 9716 9716 9719 9724 9732 9743 9754 9753 9735 9720 9713 9710 9709
1561.5760 9709 9709 9709 9711 9712 9713 9713 9710 9707 9705 9704 9706 9711
1567.8436 9718 9725 9731 9730 9721 9710 9702 9697 9695 9694 9695 9698 9702
1574.1111 9706 9710 9710 9704 9691 9678 9671 9670 9670 9670 9669 9665 9660
1580.3787 9656 9652 9650 9650 9650 9650 9649 9648 9645 9642 9640 9638 9636
1586.6461 9635 9634 9632 9629 9626 9622 9619 9616 9615 9614 9614 9613 9612
1592.9137 9608 9603 9597 9592 9588 9586 9585 9584 9581 9577 9570 9563 9554
1599.1813 9546 9539 9533 9527 9520 9511 9499 9485 9468 9451 9435 9422 9409
1605.4487 9394 9378 9359 9338 9317 9297 9277 9255 9232 9206 9181 9159 9139
1611.7163 9122 9106 9092 9083 9078 9080 9088 9102 9125 9163 9215 9269 9310
1617.9838 9340 9364 9384 9402 9416 9426 9432 9435 9436 9433 9427 9418 9410
1624.2513 9407 9408 9411 9413 9412 9408 9399 9390 9384 9383 9386 9392 9396
1630.5188 9398 9397 9392 9385 9378 9373 9368 9362 9349 9319 9271 9219 9181
1636.7864 9155 9135 9114 9092 9071 9051 9033 9016 8998 8979 8958 8936 8916
1643.0538 8898 8885 8874 8864 8852 8833 8802 8760 8716 8681 8657 8642 8633
1649.3214 8628 8626 8627 8628 8631 8634 8630 8603 8542 8494 8478 8475 8474
1655.5889 8472 8469 8464 8456 8445 8432 8416 8398 8380 8363 8348 8334 8314
1661.8564 8281 8230 8167 8108 8063 8027 7994 7959 7921 7885 7852 7823 7790
1668.1239 7740 7662 7566 7475 7409 7363 7330 7305 7291 7292 7307 7334 7376
1674.3915 7437 7521 7622 7720 7805 7882 7960 8040 8125 8211 8298 8382 8458
1680.6589 8521 8572 8611 8644 8673 8695 8695 8646 8571 8524 8504 8491 8475
1686.9265 8450 8414 8366 8307 8240 8167 8092 8017 7944 7871 7799 7731 7670
1693.1940 7619 7579 7546 7510 7453 7363 7268 7216 7213 7236 7270 7308 7343
1699.4615 7368 7366 7347 7344 7361 7384 7406 7424 7434 7438 7435 7434 7444
1705.7290 7477 7535 7614 7705 7800 7897 7999 8108 8222 8335 8439 8529 8606
1711.9966 8674 8737 8798 8858 8917 8973 9021 9061 9092 9119 9142 9158 9166
1718.2640 9167 9168 9173 9181 9190 9198 9206 9212 9216 9217 9213 9202 9185
1724.5316 9161 9132 9099 9061 9021 8982 8946 8917 8897 8886 8889 8906 8936
1730.7991 8972 9007 9039 9070 9103 9146 9202 9259 9298 9323 9343 9364 9387
1737.0667 9413 9441 9471 9501 9530 9556 9574 9587 9595 9604 9613 9623 9631
1743.3341 9637 9637 9634 9628 9621 9613 9602 9590 9575 9558 9541 9528 9520
1749.6017 9518 9523 9532 9543 9552 9561 9570 9582 9596 9614 9633 9654 9677
1755.8691 9702 9727 9750 9767 9778 9785 9791 9798 9808 9820 9835 9850 9862
1762.1367 9866 9865 9862 9860 9859 9860 9861 9864 9866 9869 9871 9872 9872
1768.4042 9871 9872 9875 9881 9891 9904 9917 9924 9922 9913 9904 9898 9895
1774.6718 9893 9891 9890 9888 9887 9886 9886 9887 9890 9894 9897 9899 9898
1780.9392 9894 9889 9883 9880 9878 9879 9883 9889 9897 9904 9909 9911 9909
1787.2068 9905 9900 9896 9892 9891 9890 9890 9891 9891 9892 9893 9894 9896
1793.4742 9898 9902 9906 9909 9912 9911 9909 9904 9900 9896 9894 9895 9897
1799.7418 9900 9905 9909 9913 9914 9913 9910 9904 9897 9891 9887 9886 9887
1806.0093 9890 9893 9894 9893 9891 9889 9889 9890 9892 9894 9896 9897 9897
1812.2769 9897 9897 9896 9893 9891 9889 9888 9889 9891 9893 9894 9893 9892
1818.5443 9891 9891 9892 9893 9894 9894 9894 9895 9898 9901 9904 9906 9906
1824.8119 9904 9900 9895 9892 9892 9894 9898 9903 9908 9909 9907 9901 9895
1831.0793 9892 9891 9893 9897 9902 9906 9910 9912 9913 9913 9911 9909 9906
1837.3469 9904 9902 9903 9906 9911 9916 9920 9920 9917 9912 9907 9905 9908
1843.6144 9916 9925 9929 9928 9922 9916 9911 9908 9905 9904 9903 9901 9898
1849.8820 9895 9895 9898 9905 9914 9923 9928 9928 9923 9917 9912 9909 9909
1856.1494 9911 9913 9914 9914 9912 9911 9910 9910 9910 9909 9906 9901 9896
1862.4170 9894 9896 9903 9911 9918 9920 9917 9911 9907 9909 9916 9928 9940
1868.6844 9945 9942 9934 9927 9921 9919 9918 9916 9913 9910 9906 9903 9902
1874.9520 9903 9906 9911 9916 9920 9924 9925 9923 9919 9913 9906 9902 9900
1881.2195 9903 9909 9917 9925 9929 9929 9925 9916 9906 9898 9892 9891 9894
1887.4871 9899 9903 9905 9904 9900 9899 9902 9910 9921 9932 9940 9941 9934
1893.7545 9921 9905 9892 9888 9892 9902 9915 9925 9930 9930 9926 9921 9918
1900.0221 9920 9925 9932 9936 9932 9919 9899 9878 9863 9860 9869 9888 9911
1906.2896 9931 9944 9948 9943 9934 9923 9916 9914 9916 9919 9922 9921 9916
1912.5571 9909 9902 9896 9894 9895 9897 9900 9903 9909 9920 9938 9959 9976
1918.8246 9981 9975 9962 9949 9940 9938 9941 9948 9953 9958 9963 9968 9973
1925.0922 9975 9970 9958 9940 9922 9910 9906 9909 9916 9921 9923 9925 9928
1931.3596 9936 9947 9957 9962 9959 9947 9932 9919 9912 9913 9920 9931 9942
1937.6272 9953 9963 9972 9978 9980 9979 9975 9974 9976 9980 9978 9966 9945
1943.8947 9921 9905 9904 9921 9952 9987 10015 10030 10029 10015 9993 9967 9941
1950.1622 9919 9908 9910 9927 9955 9987 10015 10033 10039 10033 10021 10005
1955.9476 9991 9979 9971 9967 9968 9973 9983 9994 10005 10013 10012 10002 9985
1962.2151 9968 9962 9972 10000 10036 10069 10090 10096 10096 10101 10118 10144
1968.0005 10169 10185 10189 10181 10161 10129 10084 10030 9974 9926 9896 9884
1973.7859 9889 9905 9929 9959 9996 10034 10065 10078 10063 10023 9973 9933
1979.5713 9920 9940 9981 10025 10055 10062 10051 10033 10020 10014 10014 10014
1985.3567 10011 10006 10004 10006 10013 10024 10036 10050 10064 10073 10070
1990.6600 10050 10013 9971 9941 9936 9956 9988 10015 10026 10016 9992 9965
1996.4454 9945 9936 9937 9943 9947 9947 9941 9932 9926 9927 9941 9967 10000
2002.7129 10028 10041 10037 10024 10013 10013 10024 10037 10042 10034 10017
2008.0162 9995 9971 9944 9911 9878 9858 9865 9905 9971 10047 10110 10145 10147
2014.2837 10125 10090 10054 10027 10013 10009 10009 10004 9992 9974 9956 9943
2020.0691 9933 9920 9899 9869 9841 9826 9837 9874 9928 9980 10013 10020 10005
2026.3367 9982 9965 9961 9970 9982 9989 9986 9978 9972 9976 9994 10022 10054
2032.6041 10081 10096 10098 10088 10073 10060 10056 10064 10081 10100 10113
2037.9075 10115 10107 10095 10087 10088 10098 10112 10124 10128 10120 10102
2043.2107 10074 10036 9991 9947 9914 9902 9914 9948 9988 10020 10030 10016
2048.9961 9987 9957 9939 9939 9952 9969 9984 9991 9992 9991 9996 10009 10029
2055.2637 10051 10068 10073 10065 10047 10025 10000 9975 9947 9917 9890 9875
2061.0491 9877 9896 9925 9952 9966 9964 9948 9926 9908 9897 9893 9892 9892
2067.3167 9894 9900 9909 9923 9936 9945 9947 9940 9929 9917 9906 9900 9899
2073.5840 9900 9904 9908 9910 9910 9906 9901 9898 9901 9912 9927 9938 9938
2079.8516 9922 9898 9874 9863 9867 9884 9903 9916 9922 9922 9922 9925 9928
2086.1191 9930 9929 9927 9928 9932 9939 9943 9941 9933 9924 9918 9919 9926
2092.3867 9937 9947 9955 9959 9961 9963 9966 9970 9975 9979 9979 9973 9960
2098.6541 9941 9919 9900 9887 9884 9889 9897 9906 9912 9916 9918 9919 9918
2104.9216 9915 9911 9906 9902 9901 9900 9900 9899 9898 9897 9896 9895 9894
2111.1892 9894 9898 9906 9918 9931 9942 9947 9945 9935 9920 9902 9888 9880
2117.4568 9884 9895 9911 9924 9930 9928 9924 9923 9929 9941 9953 9960 9959
2123.7241 9950 9937 9923 9911 9900 9891 9883 9877 9876 9880 9890 9906 9925
2129.9917 9946 9967 9984 9999 10008 10012 10010 10001 9988 9973 9956 9940 9925
2136.2593 9913 9905 9902 9905 9911 9918 9925 9933 9946 9965 9988 10007 10015
2142.5269 10009 9991 9969 9949 9938 9934 9935 9940 9947 9959 9979 10006 10036
2148.7942 10066 10090 10107 10115 10114 10106 10092 10072 10048 10022 9995
2154.0977 9969 9946 9928 9915 9904 9889 9862 9822 9775 9735 9721 9746 9812
2160.3650 9908 10014 10113 10192 10244 10270 10275 10265 10242 10209 10166
2165.6685 10112 10055 10002 9966 9952 9961 9986 10019 10049 10069 10073 10060
2171.4539 10034 10001 9971 9957 9967 9999 10044 10083 10102 10097 10076 10056
2177.2393 10049 10059 10076 10086 10079 10054 10023 9998 9988 9994 10010 10023
2183.0247 10028 10025 10020 10019 10025 10034 10035 10019 9982 9934 9890 9867
2188.8101 9872 9903 9949 9996 10034 10059 10070 10066 10049 10021 9989 9961
2194.5955 9941 9933 9933 9939 9947 9955 9965 9973 9974 9966 9947 9926 9910
2200.8628 9909 9923 9948 9974 9991 9995 9987 9973 9956 9942 9931 9927 9929
2207.1304 9939 9955 9973 9989 9998 10001 9996 9987 9975 9963 9951 9940 9927
2213.3979 9916 9909 9908 9916 9930 9943 9950 9947 9936 9925 9919 9922 9931
2219.6655 9942 9950 9952 9949 9944 9941 9942 9950 9960 9969 9971 9965 9954
2225.9329 9942 9933 9929 9926 9920 9907 9891 9876 9868 9871 9884 9904 9926
2232.2004 9944 9956 9959 9951 9935 9914 9896 9884 9881 9885 9893 9899 9902
2238.4680 9902 9899 9895 9889 9881 9873 9869 9869 9874 9879 9883 9883 9882
2244.7356 9883 9889 9899 9908 9913 9912 9906 9901 9898 9900 9904 9906 9903
2251.0029 9896 9884 9871 9861 9856 9859 9869 9884 9900 9915 9929 9939 9946
2257.2705 9946 9940 9928 9917 9911 9911 9915 9919 9918 9911 9903 9898 9897
2263.5381 9901 9905 9907 9904 9898 9894 9893 9895 9899 9901 9902 9901 9903
2269.8057 9909 9918 9928 9933 9931 9922 9912 9903 9900 9901 9903 9905 9906
2276.0730 9905 9905 9906 9908 9909 9907 9900 9891 9882 9877 9875 9878 9881
2282.3406 9883 9884 9883 9885 9889 9896 9904 9907 9907 9901 9894 9886 9881
2288.6082 9879 9880 9883 9888 9892 9895 9894 9891 9885 9880 9877 9876 9879
2294.8757 9885 9893 9900 9906 9907 9904 9900 9896 9895 9898 9903 9910 9916
2301.1431 9921 9925 9928 9930 9930 9927 9923 9920 9920 9925 9932 9939 9943
2307.4106 9942 9936 9929 9923 9922 9925 9932 9942 9951 9957 9958 9953 9945
2313.6782 9937 9933 9936 9946 9961 9977 9988 9992 9991 9989 9990 9995 10002
2319.9458 10009 10012 10010 10005 10004 10007 10014 10021 10025 10026 10026
2325.2490 10027 10033 10043 10056 10069 10080 10088 10092 10093 10093 10092
2330.5522 10092 10093 10094 10093 10091 10088 10086 10088 10095 10107 10123
2335.8555 10137 10146 10147 10139 10126 10112 10101 10095 10094 10098 10106
2341.1589 10116 10127 10140 10149 10150 10140 10119 10094 10071 10054 10046
2346.4622 10041 10038 10035 10033 10032 10035 10039 10045 10049 10052 10057
2351.7654 10068 10085 10107 10128 10145 10154 10157 10161 10166 10174 10181
2357.0686 10184 10184 10186 10194 10214 10246 10283 10319 10347 10361 10362
2362.3721 10350 10330 10304 10274 10244 10217 10196 10182 10173 10163 10148
2367.6753 10127 10101 10077 10060 10052 10055 10064 10074 10081 10083 10077
2372.9785 10065 10049 10032 10015 10000 9988 9978 9969 9961 9953 9945 9938
2378.7639 9933 9929 9927 9925 9922 9917 9910 9902 9894 9887 9882 9880 9879
2385.0315 9879 9880 9880 9878 9875 9870 9866 9864 9864 9866 9868 9868 9866
2391.2991 9862 9858 9856 9858 9863 9868 9872 9874 9872 9867 9862 9858 9856
2397.5664 9856 9856 9856 9853 9850 9848 9848 9851 9858 9864 9869 9870 9867
2403.8340 9862 9856 9853 9852 9853 9855 9857 9857 9856 9854 9853 9853 9853
2410.1016 9852 9851 9849 9848 9848 9851 9855 9859 9860 9859 9857 9855 9854
2416.3691 9856 9858 9861 9863 9864 9865 9866 9866 9866 9864 9860 9856 9853
2422.6365 9851 9851 9852 9852 9852 9850 9848 9848 9850 9856 9865 9874 9881
2428.9041 9885 9884 9881 9875 9870 9866 9863 9861 9860 9860 9861 9861 9862
2435.1716 9863 9863 9863 9861 9859 9857 9855 9854 9853 9852 9853 9854 9857
2441.4392 9861 9863 9865 9867 9867 9866 9865 9864 9863 9864 9866 9870 9873
2447.7065 9875 9875 9872 9868 9866 9866 9868 9869 9870 9868 9865 9862 9861
2453.9741 9860 9860 9860 9860 9861 9863 9866 9869 9872 9874 9874 9874 9873
2460.2417 9871 9870 9869 9868 9867 9867 9867 9865 9863 9859 9855 9852 9849
2466.5093 9847 9846 9846 9847 9850 9855 9860 9865 9868 9868 9867 9866 9866
2472.7766 9866 9868 9869 9870 9870 9869 9868 9867 9865 9862 9857 9852 9848
2479.0442 9846 9847 9851 9855 9860 9864 9868 9871 9874 9876 9876 9875 9872
2485.3118 9867 9862 9855 9848 9842 9840 9841 9846 9853 9859 9862 9861 9857
2491.5793 9853 9848 9846 9845 9846 9849 9852 9856 9859 9859 9857 9854 9851
2497.8467 9849 9849 9849 9848 9847 9847 9848 9851 9856 9861 9865 9867 9866
2504.1143 9863 9858 9853 9850 9849 9850 9852 9854 9854 9854 9852 9852 9853
2510.3818 9856 9859 9861 9862 9861 9859 9857 9854 9852 9851 9851 9853 9857
2516.6494 9861 9864 9867 9868 9868 9868 9868 9870 9872 9874 9873 9870 9865
2522.9167 9859 9854 9852 9853 9857 9862 9866 9870 9872 9873 9871 9868 9864
2529.1843 9859 9854 9851 9849 9850 9851 9855 9859 9865 9870 9873 9873 9870
2535.4519 9864 9860 9858 9858 9861 9865 9867 9869 9869 9870 9872 9875 9876
2541.7195 9874 9871 9866 9861 9859 9860 9863 9868 9871 9871 9867 9862 9856
2547.9868 9852 9850 9850 9851 9852 9853 9854 9854 9855 9855 9854 9854 9853
2554.2544 9852 9852 9852 9851 9850 9849 9849 9849 9849 9849 9849 9848 9846
2560.5220 9845 9845 9845 9845 9845 9846 9848 9850 9855 9860 9865 9869 9871
2566.7896 9869 9864 9857 9850 9845 9844 9847 9851 9855 9857 9858 9859 9859
2573.0569 9860 9859 9858 9855 9852 9850 9851 9853 9855 9855 9852 9848 9843
2579.3245 9839 9838 9840 9842 9845 9846 9846 9845 9843 9841 9842 9845 9850
2585.5920 9855 9860 9863 9863 9862 9859 9855 9852 9849 9846 9843 9841 9840
2591.8596 9839 9840 9843 9846 9850 9854 9856 9857 9857 9854 9849 9843 9838
2598.1272 9836 9840 9850 9862 9872 9876 9871 9861 9850 9842 9840 9843 9848
2604.3945 9852 9853 9850 9845 9841 9838 9837 9838 9840 9842 9843 9844 9844
2610.6621 9844 9844 9844 9844 9844 9844 9843 9843 9843 9844 9846 9850 9853
2616.9297 9856 9855 9852 9848 9844 9841 9841 9841 9842 9843 9842 9840 9839
2623.1973 9838 9838 9838 9839 9840 9841 9842 9844 9845 9846 9846 9845 9842
2629.4646 9838 9835 9833 9834 9836 9839 9842 9845 9847 9850 9852 9854 9855
2635.7322 9854 9851 9849 9847 9846 9846 9846 9846 9846 9845 9845 9844 9843
2641.9998 9841 9839 9837 9835 9836 9838 9841 9843 9845 9845 9845 9843 9841
2648.2673 9840 9838 9837 9837 9838 9840 9842 9843 9843 9843 9842 9842 9842
2654.5347 9842 9841 9839 9835 9833 9832 9833 9836 9838 9839 9838 9836 9832
2660.8022 9830 9829 9830 9831 9832 9833 9833 9833 9834 9835 9836 9837 9836
2667.0698 9836 9835 9834 9834 9834 9835 9836 9837 9838 9838 9837 9834 9830
2673.3374 9826 9824 9823 9825 9829 9833 9836 9836 9834 9831 9829 9828 9829
2679.6047 9832 9834 9836 9837 9837 9837 9837 9838 9840 9842 9843 9842 9841
2685.8723 9838 9835 9832 9829 9827 9826 9826 9828 9829 9831 9831 9830 9828
2692.1399 9826 9825 9824 9825 9825 9826 9827 9827 9828 9829 9830 9830 9830
2698.4075 9829 9829 9829 9830 9832 9834 9835 9835 9833 9831 9829 9827 9826
2704.6748 9824 9824 9824 9825 9826 9826 9826 9826 9825 9825 9826 9827 9828
2710.9424 9829 9829 9828 9827 9824 9821 9818 9815 9813 9813 9815 9817 9820
2717.2100 9823 9826 9828 9829 9830 9830 9828 9826 9824 9823 9824 9827 9830
2723.4775 9831 9830 9826 9821 9817 9815 9816 9818 9821 9822 9824 9825 9827
2729.7449 9828 9829 9829 9828 9826 9824 9823 9823 9823 9822 9822 9821 9821
2736.0125 9822 9822 9823 9825 9826 9828 9829 9829 9828 9826 9825 9825 9826
2742.2800 9829 9832 9834 9835 9834 9832 9831 9830 9829 9829 9829 9828 9828
2748.5476 9827 9827 9827 9828 9830 9831 9833 9833 9834 9833 9832 9830 9829
2754.8149 9828 9829 9830 9831 9832 9832 9831 9831 9830 9830 9830 9830 9829
2761.0825 9829 9830 9831 9832 9834 9835 9836 9835 9834 9833 9833 9834 9836
2767.3501 9838 9839 9838 9835 9831 9827 9824 9823 9823 9825 9827 9828 9828
2773.6177 9827 9825 9822 9821 9821 9823 9825 9826 9826 9826 9825 9824 9824
2779.8850 9823 9823 9823 9823 9824 9825 9827 9829 9831 9832 9833 9834 9834
2786.1526 9833 9831 9829 9826 9824 9823 9823 9824 9827 9829 9831 9832 9832
2792.4202 9833 9833 9834 9834 9833 9832 9830 9828 9827 9826 9826 9825 9824
2798.6877 9823 9822 9822 9822 9822 9822 9822 9823 9825 9828 9830 9832 9832
2804.9551 9829 9825 9820 9815 9812 9810 9809 9810 9811 9812 9812 9812 9811
2811.2227 9810 9809 9808 9807 9806 9806 9806 9806 9805 9804 9803 9801 9801
2817.4902 9802 9804 9806 9807 9807 9804 9801 9799 9798 9797 9798 9798 9798
2823.7578 9799 9800 9802 9803 9804 9803 9800 9796 9792 9788 9785 9782 9779
2830.0251 9774 9769 9763 9758 9753 9750 9748 9748 9748 9748 9749 9749 9750
2836.2927 9752 9754 9757 9760 9763 9766 9767 9768 9768 9768 9768 9768 9770
2842.5603 9771 9773 9775 9777 9778 9779 9779 9777 9774 9769 9764 9761 9758
2848.8279 9757 9756 9753 9750 9747 9745 9744 9743 9743 9743 9742 9740 9738
2855.0952 9735 9732 9728 9724 9719 9715 9711 9709 9706 9703 9698 9691 9682
2861.3628 9671 9659 9645 9631 9616 9601 9588 9578 9570 9565 9562 9560 9561
2867.6304 9563 9567 9571 9576 9581 9586 9591 9596 9601 9604 9606 9607 9609
2873.8979 9612 9615 9619 9624 9629 9635 9644 9654 9666 9677 9686 9694 9699
2880.1653 9702 9705 9706 9707 9709 9712 9716 9719 9720 9719 9713 9705 9695
2886.4329 9684 9673 9662 9653 9647 9642 9639 9637 9633 9629 9623 9617 9610
2892.7004 9604 9598 9592 9586 9580 9574 9568 9563 9559 9555 9551 9544 9536
2898.9680 9526 9514 9502 9490 9482 9479 9481 9489 9500 9513 9526 9536 9543
2905.2354 9549 9554 9561 9568 9575 9581 9584 9586 9586 9585 9585 9585 9585
2911.5029 9585 9586 9588 9592 9597 9604 9610 9615 9619 9621 9621 9620 9620
2917.7705 9621 9624 9628 9632 9637 9640 9640 9637 9632 9625 9618 9612 9609
2924.0381 9609 9612 9616 9621 9626 9630 9633 9635 9635 9634 9632 9629 9625
2930.3054 9621 9615 9610 9606 9605 9605 9605 9605 9603 9601 9601 9603 9608
2936.5730 9614 9619 9620 9617 9611 9603 9595 9588 9582 9577 9574 9571 9568
2942.8406 9563 9556 9547 9536 9522 9508 9494 9482 9471 9461 9453 9445 9438
2949.1082 9430 9423 9418 9415 9416 9421 9430 9440 9451 9463 9474 9484 9493
2955.3755 9499 9504 9506 9507 9508 9509 9508 9506 9501 9493 9485 9477 9470
2961.6431 9464 9460 9458 9455 9452 9449 9444 9438 9430 9421 9412 9402 9395
2967.9106 9390 9389 9393 9403 9416 9434 9456 9480 9505 9531 9556 9578 9596
2974.1782 9611 9623 9633 9643 9654 9667 9681 9696 9708 9718 9724 9727 9729
2980.4456 9733 9737 9744 9751 9757 9763 9768 9773 9779 9786 9792 9798 9802
2986.7131 9803 9800 9793 9783 9772 9761 9751 9743 9737 9734 9734 9738 9747
2992.9807 9760 9776 9792 9805 9813 9816 9815 9811 9807 9803 9802 9802 9804
2999.2483 9805 9806 9805 9802 9798 9793 9789 9786 9784 9783 9782 9781 9781
3005.5156 9779 9777 9774 9770 9767 9766 9765 9765 9765 9765 9764 9764 9763
3011.7832 9762 9761 9761 9762 9766 9772 9780 9787 9792 9794 9794 9794 9795
3018.0508 9798 9803 9808 9814 9820 9823 9826 9826 9824 9821 9816 9811 9807
3024.3184 9803 9800 9798 9798 9798 9799 9800 9802 9803 9805 9807 9810 9814
3030.5857 9818 9821 9823 9824 9823 9823 9825 9828 9832 9835 9838 9840 9842
3036.8533 9844 9846 9847 9847 9847 9846 9847 9848 9850 9853 9855 9855 9854
3043.1208 9852 9850 9848 9847 9846 9847 9849 9852 9855 9858 9858 9857 9853
3049.3884 9849 9845 9844 9845 9849 9855 9860 9865 9868 9869 9868 9866 9863
3055.6558 9860 9857 9855 9854 9855 9857 9859 9860 9861 9861 9860 9860 9862
3061.9233 9863 9864 9863 9862 9859 9857 9856 9855 9854 9852 9851 9850 9849
3068.1909 9851 9853 9856 9859 9861 9861 9861 9860 9860 9859 9859 9859 9859
3074.4585 9859 9859 9858 9857 9855 9854 9854 9857 9861 9865 9867 9867 9864
3080.7258 9860 9856 9853 9852 9853 9854 9855 9854 9852 9850 9849 9850 9853
3086.9934 9857 9861 9863 9865 9865 9865 9864 9863 9862 9861 9860 9859 9858
3093.2610 9858 9858 9858 9859 9859 9858 9859 9860 9863 9866 9867 9867 9864
3099.5286 9859 9856 9854 9856 9859 9863 9866 9868 9868 9868 9869 9870 9871
3105.7959 9871 9871 9870 9870 9869 9867 9864 9861 9858 9856 9854 9852 9852
3112.0635 9853 9857 9862 9866 9869 9867 9863 9859 9857 9857 9861 9864 9867
3118.3311 9868 9868 9868 9869 9872 9874 9876 9875 9873 9871 9869 9868 9868
3124.5986 9867 9866 9862 9858 9853 9849 9846 9845 9847 9851 9856 9861 9865
3130.8660 9867 9866 9865 9864 9865 9868 9873 9878 9882 9883 9880 9875 9869
3137.1335 9864 9862 9862 9864 9865 9864 9861 9857 9855 9854 9854 9855 9856
3143.4011 9858 9860 9863 9867 9871 9872 9871 9867 9863 9860 9860 9862 9866
3149.6687 9869 9871 9871 9869 9864 9860 9856 9853 9852 9853 9855 9859 9862
3155.9360 9865 9867 9866 9865 9862 9862 9863 9865 9869 9871 9870 9866 9860
3162.2036 9854 9852 9853 9859 9867 9874 9879 9881 9880 9877 9874 9871 9869
3168.4712 9869 9870 9871 9872 9874 9874 9874 9872 9870 9866 9862 9857 9853
3174.7388 9850 9848 9849 9852 9857 9862 9866 9868 9867 9864 9859 9855 9852
3181.0061 9850 9850 9852 9854 9857 9859 9861 9863 9866 9869 9873 9876 9875
3187.2737 9872 9867 9862 9859 9860 9863 9868 9871 9873 9873 9872 9871 9870
3193.5413 9868 9867 9866 9865 9865 9866 9868 9870 9874 9877 9877 9874 9868
3199.8088 9859 9850 9845 9844 9846 9852 9858 9863 9867 9869 9870 9870 9870
3206.0762 9869 9867 9865 9863 9860 9857 9854 9852 9853 9857 9861 9866 9869
3212.3438 9870 9870 9870 9869 9869 9869 9871 9875 9880 9886 9891 9893 9892
3218.6113 9887 9881 9876 9872 9871 9871 9870 9867 9864 9863 9864 9867 9872
3224.8789 9876 9880 9882 9883 9881 9879 9874 9870 9868 9868 9870 9874 9877
3231.1462 9878 9878 9875 9873 9871 9870 9869 9868 9867 9866 9865 9866 9868
3237.4138 9869 9870 9869 9868 9870 9874 9881 9889 9894 9895 9892 9885 9878
3243.6814 9872 9867 9865 9865 9867 9872 9878 9883 9886 9884 9879 9871 9865
3249.9490 9862 9863 9866 9871 9875 9877 9877 9877 9876 9875 9875 9874 9873
3256.2163 9872 9870 9868 9864 9860 9857 9855 9855 9857 9861 9864 9867 9869
3262.4839 9869 9869 9868 9867 9866 9865 9863 9862 9862 9862 9863 9865 9868
3268.7515 9871 9870 9865 9857 9847 9840 9837 9838 9842 9847 9851 9853 9854
3275.0190 9854 9854 9853 9852 9851 9851 9853 9855 9855 9854 9852 9848 9845
3281.2864 9843 9842 9841 9840 9837 9835 9833 9831 9830 9829 9829 9829 9831
3287.5540 9833 9835 9837 9839 9840 9840 9838 9836 9832 9829 9824 9819 9814
3293.8215 9809 9806 9804 9803 9803 9802 9799 9797 9797 9797 9799 9801 9803
3300.0891 9806 9808 9810 9811 9810 9807 9803 9802 9802 9805 9809 9811 9811
3306.3564 9807 9801 9794 9788 9785 9786 9790 9795 9799 9801 9799 9794 9789
3312.6240 9784 9782 9783 9785 9789 9791 9790 9787 9783 9779 9776 9776 9778
3318.8916 9783 9787 9789 9788 9784 9779 9775 9775 9777 9782 9784 9784 9779
3325.1592 9773 9768 9767 9769 9773 9777 9780 9781 9780 9777 9773 9769 9766
3331.4265 9763 9761 9759 9757 9755 9754 9754 9756 9760 9766 9771 9774 9773
3337.6941 9768 9760 9751 9744 9739 9738 9739 9742 9744 9744 9742 9738 9734
3343.9617 9730 9728 9727 9727 9728 9731 9735 9741 9746 9751 9752 9751 9746
3350.2292 9739 9731 9724 9719 9714 9711 9708 9706 9706 9707 9710 9713 9716
3356.4966 9719 9721 9722 9721 9718 9713 9706 9698 9691 9684 9678 9674 9671
3362.7642 9671 9673 9677 9682 9684 9684 9680 9675 9670 9666 9663 9660 9657
3369.0317 9652 9646 9641 9638 9636 9637 9639 9641 9641 9639 9635 9630 9623
3375.2993 9617 9613 9612 9617 9625 9632 9636 9633 9622 9607 9592 9582 9578
3381.5667 9579 9583 9585 9583 9579 9573 9568 9564 9562 9562 9563 9565 9567
3387.8342 9569 9569 9568 9566 9563 9560 9558 9555 9552 9547 9541 9535 9529
3394.1018 9525 9521 9519 9516 9513 9510 9506 9502 9498 9493 9487 9480 9472
3400.3694 9466 9460 9456 9453 9452 9450 9447 9442 9435 9428 9422 9418 9415
3406.6367 9413 9410 9404 9397 9387 9379 9372 9368 9364 9360 9354 9347 9339
3412.9043 9332 9326 9322 9320 9318 9317 9317 9316 9314 9310 9303 9293 9283
3419.1719 9274 9268 9265 9265 9265 9265 9263 9261 9259 9255 9251 9247 9244
3425.4395 9244 9246 9250 9257 9263 9268 9273 9278 9284 9290 9295 9299 9302
3431.7068 9304 9306 9311 9318 9327 9337 9347 9359 9370 9381 9390 9396 9400
3437.9744 9401 9402 9404 9408 9416 9425 9436 9447 9457 9467 9477 9486 9493
3444.2419 9499 9504 9507 9511 9516 9522 9530 9537 9544 9551 9557 9564 9571
3450.5095 9577 9582 9586 9591 9596 9602 9610 9617 9625 9631 9636 9640 9643
3456.7769 9645 9646 9648 9651 9656 9663 9672 9681 9688 9691 9689 9684 9677
3463.0444 9674 9675 9680 9689 9699 9707 9711 9712 9712 9713 9715 9719 9724
3469.3120 9729 9732 9734 9734 9733 9732 9733 9735 9738 9740 9742 9742 9741
3475.5796 9740 9740 9740 9740 9741 9742 9745 9748 9752 9755 9757 9757 9754
3481.8469 9750 9748 9747 9749 9751 9755 9757 9760 9762 9765 9769 9773 9776
3488.1145 9777 9775 9771 9769 9768 9770 9773 9775 9775 9774 9772 9771 9773
3494.3821 9779 9788 9797 9805 9810 9811 9808 9802 9795 9788 9783 9783 9787
3500.6497 9794 9804 9811 9816 9816 9814 9810 9808 9809 9813 9819 9825 9829
3506.9170 9832 9831 9828 9823 9818 9814 9814 9815 9817 9818 9819 9818 9817
3513.1846 9818 9820 9824 9827 9829 9830 9829 9827 9825 9825 9826 9829 9832
3519.4521 9837 9840 9842 9842 9840 9838 9835 9833 9833 9833 9834 9836 9838
3525.7197 9840 9843 9847 9850 9854 9859 9863 9867 9869 9871 9872 9872 9872
3531.9871 9871 9870 9870 9870 9869 9867 9862 9855 9849 9845 9845 9850 9857
3538.2546 9864 9867 9867 9865 9863 9862 9864 9868 9872 9874 9875 9874 9872
3544.5222 9869 9866 9862 9857 9852 9848 9846 9846 9846 9847 9848 9850 9852
3550.7898 9855 9858 9860 9861 9860 9860 9861 9864 9868 9872 9873 9872 9869
3557.0571 9866 9863 9860 9857 9854 9852 9851 9855 9862 9871 9877 9880 9876
3563.3247 9869 9859 9852 9848 9849 9856 9868 9882 9893 9897 9893 9884 9873
3569.5923 9864 9858 9857 9858 9861 9864 9867 9872 9877 9881 9883 9880 9873
3575.8599 9865 9860 9859 9862 9867 9872 9874 9874 9872 9870 9869 9870 9872
3582.1274 9874 9875 9875 9874 9873 9873 9876 9882 9891 9900 9906 9906 9901
3588.3948 9893 9885 9878 9874 9871 9870 9869 9870 9872 9874 9876 9875 9871
3594.6624 9866 9862 9862 9866 9874 9882 9888 9890 9890 9888 9886 9882 9876
3600.9299 9868 9858 9849 9843 9843 9848 9857 9869 9882 9893 9901 9904 9903
3607.1975 9899 9895 9893 9893 9894 9894 9892 9886 9879 9871 9866 9866 9871
3613.4648 9879 9885 9886 9882 9875 9869 9866 9867 9871 9879 9888 9894 9897
3619.7324 9894 9891 9887 9886 9885 9884 9881 9878 9875 9873 9875 9880 9886
3626.0000 9893 9900 9904 9904 9898 9881 9860 9849 9851 9860 9870 9877 9879
3632.2676 9875 9868 9860 9855 9856 9860 9865 9870 9874 9880 9885 9888 9887
3638.5349 9882 9875 9868 9864 9864 9865 9865 9863 9861 9860 9864 9871 9881
3644.8025 9893 9904 9915 9922 9923 9917 9907 9898 9893 9894 9896 9896 9889
3651.0701 9880 9872 9868 9869 9873 9878 9883 9886 9885 9878 9868 9856 9848
3657.3376 9846 9849 9855 9862 9869 9871 9869 9863 9858 9857 9860 9868 9877
3663.6050 9883 9885 9882 9877 9873 9872 9875 9883 9894 9904 9912 9915 9911
3669.8726 9902 9892 9884 9880 9877 9876 9876 9876 9876 9875 9873 9870 9870
3676.1401 9871 9871 9868 9862 9855 9847 9842 9843 9848 9857 9867 9876 9881
3682.4077 9882 9879 9871 9862 9854 9852 9855 9863 9873 9885 9897 9909 9919
3688.6750 9924 9925 9923 9919 9912 9905 9897 9889 9880 9871 9864 9858 9856
3694.9426 9858 9862 9867 9871 9873 9875 9875 9875 9874 9873 9874 9876 9880
3701.2102 9884 9885 9882 9876 9870 9868 9870 9876 9884 9890 9892 9889 9882
3707.4778 9873 9866 9863 9866 9875 9888 9902 9913 9919 9916 9906 9894 9883
3713.7451 9874 9868 9865 9864 9866 9870 9874 9877 9877 9874 9870 9869 9873
3720.0127 9881 9890 9899 9902 9898 9889 9881 9876 9875 9877 9881 9885 9888
3726.2803 9891 9895 9901 9907 9914 9921 9928 9933 9936 9932 9922 9908 9896
3732.5479 9893 9898 9908 9917 9919 9913 9901 9890 9883 9880 9878 9877 9877
3738.8152 9877 9878 9877 9874 9871 9869 9870 9875 9882 9890 9896 9898 9896
3745.0828 9898 9904 9912 9920 9926 9928 9922 9904 9878 9857 9850 9858 9874
3751.3503 9890 9896 9889 9875 9862 9854 9848 9846 9847 9851 9858 9867 9876
3757.6179 9883 9887 9887 9883 9877 9873 9871 9872 9874 9877 9880 9881 9881
3763.8853 9877 9870 9860 9851 9846 9845 9848 9852 9855 9856 9856 9854 9852
3770.1528 9852 9854 9857 9861 9863 9864 9861 9857 9852 9849 9850 9855 9861
3776.4204 9867 9871 9871 9870 9867 9866 9864 9863 9861 9858 9857 9857 9859
3782.6880 9863 9867 9869 9868 9865 9860 9857 9854 9854 9855 9856 9859 9862
3788.9553 9866 9869 9872 9873 9874 9873 9872 9871 9870 9868 9866 9862 9856
3795.2229 9849 9844 9841 9844 9849 9855 9860 9863 9865 9867 9872 9878 9884
3801.4905 9887 9883 9876 9869 9863 9858 9855 9854 9854 9855 9856 9856 9855
3807.7581 9853 9852 9852 9854 9856 9858 9860 9862 9863 9864 9865 9867 9869
3814.0254 9873 9876 9880 9881 9879 9873 9866 9859 9854 9849 9847 9846 9847
3820.2930 9852 9859 9865 9867 9866 9863 9860 9858 9856 9855 9855 9856 9856
3826.5605 9856 9856 9854 9853 9852 9852 9855 9860 9868 9877 9883 9884 9880
3832.8281 9873 9864 9856 9850 9849 9855 9867 9881 9894 9902 9900 9891 9880
3839.0955 9871 9864 9860 9858 9858 9860 9864 9869 9873 9875 9876 9874 9872
3845.3630 9869 9867 9863 9859 9855 9852 9851 9853 9858 9863 9868 9872 9876
3851.6306 9880 9886 9890 9886 9871 9852 9839 9833 9833 9837 9842 9848 9853
3857.8982 9855 9857 9857 9857 9856 9855 9852 9851 9852 9857 9865 9874 9881
3864.1655 9882 9877 9866 9858 9853 9854 9856 9860 9862 9861 9855 9847 9843
3870.4331 9845 9851 9857 9861 9863 9864 9864 9866 9869 9872 9874 9874 9872
3876.7007 9870 9870 9870 9871 9872 9873 9871 9868 9863 9858 9855 9853 9851
3882.9683 9850 9849 9849 9850 9853 9857 9861 9864 9865 9864 9864 9863 9864
3889.2356 9866 9869 9869 9866 9860 9853 9850 9849 9849 9848 9847 9845 9846
3895.5032 9851 9857 9865 9870 9870 9864 9855 9847 9844 9846 9852 9860 9867
3901.7708 9873 9877 9880 9882 9884 9885 9884 9881 9877 9870 9863 9854 9847
3908.0383 9841 9839 9840 9845 9851 9857 9861 9862 9861 9858 9856 9856 9860
3914.3057 9866 9874 9883 9888 9885 9876 9863 9853 9848 9849 9854 9860 9865
3920.5732 9866 9865 9863 9862 9863 9865 9868 9870 9870 9868 9864 9860 9857
3926.8408 9856 9857 9860 9864 9867 9868 9867 9864 9860 9857 9854 9855 9857
3933.1084 9862 9868 9871 9871 9866 9859 9851 9846 9845 9847 9851 9854 9855
3939.3757 9855 9855 9856 9857 9858 9858 9855 9850 9844 9841 9840 9841 9843
3945.6433 9845 9848 9851 9855 9859 9863 9865 9864 9860 9855 9850 9848 9849
3951.9109 9850 9853 9854 9855 9854 9852 9850 9848 9847 9848 9849 9851 9851
3958.1785 9850 9847 9844 9841 9838 9835 9834 9836 9840 9846 9854 9861 9866
3964.4458 9869 9870 9868 9864 9859 9854 9849 9845 9843 9843 9845 9847 9850
3970.7134 9853 9855 9856 9857 9858 9860 9862 9865 9867 9868 9867 9864 9860
3976.9810 9856 9852 9849 9848 9849 9853 9858 9862 9864 9863 9860 9858 9857
3983.2485 9858 9860 9862 9864 9863 9862 9860 9857 9855 9853 9850 9849 9848
3989.5159 9849 9852 9857 9863 9870 9876 9881 9884 9886 9885 9881 9876 9869
3995.7834 9864 9860 9858 9858 9859 9859 9860 9859 9857 9856
##END= 
