##TITLE= STDSULFAMERAZINA
##JCAMP-DX= 4.24
##DATA TYPE= INFRARED SPECTRUM
##ORIGIN= JASCO
##OWNER= 
##DATE= 22/04/13
##TIME= 18:07:26
##SPECTROMETER/DATA SYSTEM= 
##RESOLUTION= 
##DELTAX=   0.48211674
##XUNITS= 1/CM
##YUNITS= TRANSMITTANCE
##XFACTOR= 1.00000
##YFACTOR= 0.0001
##FIRSTX=   599.7532
##LASTX=  4000.1226
##NPOINTS=     7054
##FIRSTY=      1.05248
##MAXY=      1.12476
##MINY=      0.57686
##XYDATA= (X++(Y..Y))
599.7532 10525 10549 10539 10496 10433 10373 10334 10324 10342 10374 10401
605.0565 10405 10378 10326 10267 10223 10205 10213 10235 10251 10245 10213
610.3598 10162 10109 10065 10036 10020 10007 9985 9945 9883 9805 9719 9643
616.1452 9590 9572 9596 9655 9735 9819 9894 9955 10003 10041 10074 10102 10124
622.4127 10139 10143 10138 10128 10114 10101 10085 10066 10041 10011 9981 9957
628.1981 9943 9940 9945 9955 9961 9953 9919 9844 9724 9571 9415 9298 9256 9306
634.9478 9433 9601 9765 9890 9965 9994 9991 9973 9950 9926 9904 9885 9869 9859
641.6974 9858 9869 9890 9909 9912 9883 9822 9741 9662 9606 9584 9590 9608 9620
648.4470 9609 9570 9506 9427 9346 9278 9234 9221 9230 9243 9235 9184 9086 8956
655.1967 8819 8699 8609 8546 8496 8444 8375 8285 8175 8055 7935 7828 7749 7708
661.9463 7713 7763 7848 7951 8054 8138 8194 8221 8226 8214 8193 8176 8191 8270
668.6959 8377 8460 8525 8589 8653 8706 8719 8666 8531 8326 8088 7860 7671 7530
675.4456 7421 7314 7185 7027 6857 6707 6609 6585 6641 6766 6945 7159 7396 7643
682.1952 7888 8115 8310 8466 8585 8675 8744 8800 8852 8911 8988 9092 9219 9354
688.9448 9477 9571 9629 9651 9641 9604 9547 9484 9435 9415 9430 9465 9498 9510
695.6945 9495 9462 9428 9405 9401 9413 9440 9481 9535 9593 9638 9648 9604 9508
702.4441 9383 9263 9178 9141 9145 9168 9190 9198 9193 9189 9194 9209 9223 9224
709.1937 9205 9170 9132 9099 9069 9035 8990 8935 8881 8841 8823 8822 8825 8821
715.9434 8806 8788 8782 8797 8834 8885 8938 8984 9017 9039 9054 9066 9074 9077
722.6930 9074 9062 9043 9019 8990 8959 8928 8897 8869 8843 8818 8794 8774 8760
729.4426 8754 8756 8763 8770 8770 8762 8747 8729 8710 8694 8677 8659 8639 8619
736.1923 8602 8592 8591 8598 8611 8625 8637 8643 8643 8638 8632 8631 8641 8663
742.9419 8698 8741 8790 8842 8893 8945 8996 9042 9082 9115 9143 9172 9206 9245
749.6915 9288 9330 9371 9408 9441 9466 9483 9492 9500 9515 9544 9589 9645 9706
756.4412 9762 9809 9848 9878 9902 9920 9934 9948 9963 9983 10006 10030 10055
762.7087 10080 10105 10129 10146 10150 10135 10100 10046 9979 9905 9827 9749
768.4941 9669 9589 9507 9424 9340 9257 9177 9102 9034 8972 8915 8861 8810 8762
775.2437 8718 8677 8640 8604 8570 8539 8511 8488 8467 8446 8424 8400 8373 8343
781.9933 8313 8283 8255 8230 8206 8182 8155 8126 8095 8064 8035 8007 7980 7950
788.7430 7916 7876 7829 7776 7719 7662 7609 7562 7523 7492 7468 7449 7435 7425
795.4926 7416 7407 7397 7387 7380 7378 7380 7383 7383 7380 7371 7362 7353 7348
802.2422 7345 7346 7349 7356 7366 7380 7393 7403 7408 7407 7401 7393 7386 7381
808.9919 7379 7380 7385 7393 7402 7412 7419 7425 7429 7433 7438 7444 7450 7456
815.7415 7463 7471 7484 7500 7518 7532 7540 7541 7536 7530 7526 7525 7528 7535
822.4911 7547 7563 7584 7611 7643 7678 7712 7738 7750 7743 7715 7668 7606 7535
829.2408 7457 7373 7283 7186 7081 6972 6862 6759 6672 6607 6573 6572 6604 6667
835.9904 6758 6872 7009 7166 7342 7532 7732 7936 8135 8321 8487 8628 8743 8833
842.7401 8903 8957 9000 9036 9065 9085 9097 9100 9097 9091 9088 9086 9085 9079
849.4897 9067 9050 9029 9007 8988 8971 8953 8935 8915 8895 8876 8862 8853 8847
856.2393 8844 8842 8835 8824 8806 8784 8760 8737 8715 8697 8681 8665 8651 8637
862.9890 8624 8609 8590 8567 8539 8508 8474 8438 8400 8360 8319 8277 8236 8196
869.7386 8156 8116 8074 8029 7982 7933 7882 7832 7781 7731 7682 7634 7587 7541
876.4882 7497 7456 7420 7387 7357 7332 7313 7300 7293 7291 7290 7287 7280 7270
883.2379 7257 7241 7221 7194 7160 7121 7082 7049 7025 7013 7013 7023 7042 7069
889.9875 7103 7144 7193 7248 7308 7372 7438 7507 7578 7655 7738 7827 7919 8011
896.7371 8100 8186 8270 8351 8433 8512 8588 8657 8719 8774 8824 8871 8916 8959
903.4868 8999 9036 9068 9097 9126 9156 9189 9224 9257 9283 9302 9314 9322 9331
910.2364 9343 9358 9374 9389 9402 9413 9424 9434 9444 9456 9469 9484 9498 9512
916.9860 9522 9528 9531 9533 9538 9547 9562 9578 9594 9604 9608 9606 9603 9600
923.7357 9601 9605 9614 9624 9634 9641 9643 9639 9631 9620 9612 9607 9605 9604
930.4853 9603 9600 9597 9594 9595 9599 9605 9610 9613 9612 9607 9600 9592 9585
937.2349 9578 9571 9564 9556 9548 9538 9528 9517 9503 9486 9465 9443 9420 9400
943.9846 9384 9372 9363 9354 9345 9337 9331 9328 9328 9331 9332 9327 9313 9289
950.7342 9255 9216 9174 9132 9092 9053 9013 8969 8920 8865 8802 8734 8662 8590
957.4838 8522 8463 8420 8393 8383 8381 8380 8371 8348 8313 8269 8226 8190 8169
964.2335 8165 8180 8213 8261 8323 8395 8475 8558 8641 8723 8800 8872 8939 9001
970.9831 9059 9115 9170 9224 9278 9331 9382 9430 9473 9512 9547 9578 9605 9629
977.7327 9651 9670 9687 9703 9720 9738 9758 9778 9798 9816 9831 9843 9851 9855
984.4824 9858 9859 9861 9865 9872 9879 9886 9891 9893 9892 9891 9891 9893 9895
991.2320 9897 9896 9891 9883 9871 9858 9844 9829 9811 9789 9761 9727 9690 9651
997.9816 9613 9576 9543 9515 9496 9490 9498 9521 9554 9591 9628 9657 9675 9680
1004.7313 9673 9657 9633 9608 9586 9574 9578 9599 9637 9688 9747 9807 9863
1010.9988 9911 9949 9977 9995 10003 10005 10000 9991 9979 9968 9960 9955 9954
1017.2663 9954 9952 9946 9935 9919 9902 9883 9865 9848 9831 9816 9801 9785
1023.5338 9767 9747 9727 9707 9688 9671 9654 9634 9610 9581 9550 9520 9493
1029.8014 9470 9450 9431 9412 9394 9376 9361 9348 9334 9319 9298 9272 9241
1036.0688 9208 9173 9140 9108 9078 9049 9017 8981 8940 8892 8841 8790 8743
1042.3364 8700 8661 8625 8590 8557 8528 8506 8494 8494 8507 8533 8573 8624
1048.6039 8685 8751 8818 8879 8932 8974 9003 9021 9030 9030 9023 9010 8990
1054.8715 8964 8935 8904 8873 8843 8814 8786 8759 8733 8711 8694 8686 8688
1061.1389 8702 8725 8756 8791 8829 8866 8902 8933 8958 8977 8989 8995 8997
1067.4065 8996 8990 8979 8961 8938 8911 8883 8856 8831 8808 8785 8764 8742
1073.6740 8718 8690 8655 8613 8563 8507 8449 8390 8330 8269 8205 8137 8065
1079.9415 7989 7911 7833 7754 7676 7597 7517 7434 7348 7261 7175 7092 7014
1086.2090 6942 6876 6815 6761 6713 6671 6637 6612 6600 6605 6630 6683 6768
1092.4766 6887 7042 7231 7449 7687 7934 8178 8406 8610 8781 8918 9023 9098
1098.7440 9149 9181 9198 9202 9194 9176 9148 9113 9071 9022 8966 8898 8809
1105.0116 8693 8548 8383 8222 8101 8057 8110 8257 8469 8704 8917 9079 9180
1111.2791 9228 9238 9224 9199 9168 9136 9105 9078 9052 9027 9000 8971 8941
1117.5466 8912 8883 8854 8822 8786 8746 8705 8667 8632 8600 8571 8540 8507
1123.8141 8471 8433 8394 8355 8318 8282 8246 8212 8177 8141 8105 8066 8026
1130.0817 7985 7941 7895 7846 7796 7744 7691 7638 7584 7528 7471 7414 7360
1136.3491 7310 7264 7224 7188 7153 7119 7083 7042 6995 6941 6879 6812 6739
1142.6167 6662 6583 6503 6421 6340 6261 6182 6105 6029 5957 5891 5837 5798
1148.8842 5775 5769 5778 5804 5844 5900 5971 6054 6145 6242 6341 6438 6535
1155.1517 6631 6726 6821 6916 7010 7104 7201 7302 7408 7521 7639 7764 7895
1161.4192 8032 8178 8331 8491 8656 8824 8993 9164 9336 9511 9687 9863 10035
1167.6868 10199 10353 10494 10619 10731 10828 10913 10986 11047 11095 11132
1172.9900 11159 11180 11197 11213 11227 11238 11246 11248 11245 11239 11231
1178.2933 11221 11210 11195 11178 11158 11135 11109 11081 11050 11014 10974
1183.5966 10927 10876 10818 10751 10671 10571 10442 10279 10084 9864 9639 9437
1189.3820 9285 9211 9227 9333 9513 9739 9983 10215 10416 10576 10695 10776
1195.1674 10828 10857 10870 10871 10863 10851 10836 10820 10803 10784 10763
1200.4707 10741 10720 10702 10689 10680 10676 10674 10674 10674 10676 10679
1205.7739 10685 10693 10702 10712 10721 10730 10737 10743 10747 10748 10747
1211.0773 10744 10742 10741 10741 10741 10742 10741 10738 10733 10725 10716
1216.3805 10706 10696 10687 10678 10670 10661 10650 10638 10623 10606 10589
1221.6838 10573 10559 10546 10534 10521 10507 10491 10475 10458 10442 10425
1226.9871 10407 10389 10371 10352 10332 10313 10295 10277 10260 10243 10225
1232.2904 10206 10185 10163 10141 10120 10102 10084 10068 10052 10034 10015
1237.5936 9995 9974 9952 9928 9903 9876 9846 9811 9770 9721 9663 9596 9524
1243.8612 9449 9379 9318 9275 9254 9261 9297 9359 9444 9542 9643 9739 9823
1250.1287 9890 9941 9977 10002 10021 10037 10051 10064 10074 10082 10086 10088
1255.9141 10087 10087 10088 10091 10095 10098 10100 10099 10095 10088 10076
1261.2174 10060 10039 10013 9984 9953 9922 9893 9867 9850 9845 9851 9863 9870
1267.4849 9862 9833 9788 9738 9698 9679 9681 9701 9731 9760 9785 9802 9812
1273.7524 9818 9820 9820 9817 9810 9798 9780 9758 9734 9706 9678 9647 9615
1280.0199 9581 9546 9511 9478 9447 9419 9393 9369 9346 9323 9301 9278 9255
1286.2875 9232 9211 9190 9172 9154 9136 9115 9092 9067 9039 9010 8978 8944
1292.5549 8907 8865 8820 8772 8720 8663 8600 8532 8457 8380 8302 8227 8157
1298.8225 8097 8048 8013 7990 7978 7971 7964 7956 7952 7963 8007 8098 8242
1305.0900 8432 8647 8859 9040 9170 9245 9270 9258 9221 9171 9112 9047 8978
1311.3575 8905 8829 8751 8670 8586 8498 8407 8314 8220 8125 8032 7941 7852
1317.6250 7766 7681 7597 7513 7430 7348 7265 7182 7099 7017 6938 6867 6806
1323.8926 6760 6730 6717 6723 6747 6790 6852 6929 7019 7116 7217 7316 7410
1330.1600 7500 7585 7670 7757 7850 7949 8050 8151 8245 8331 8406 8467 8515
1336.4276 8547 8567 8576 8577 8577 8577 8580 8585 8593 8604 8617 8636 8663
1342.6951 8699 8745 8801 8865 8937 9014 9097 9183 9269 9354 9436 9512 9582
1348.9626 9645 9698 9742 9775 9799 9814 9822 9824 9821 9812 9799 9780 9759
1355.2301 9735 9710 9684 9657 9628 9598 9569 9541 9513 9485 9454 9422 9388
1361.4977 9355 9322 9290 9257 9223 9187 9149 9107 9060 9008 8951 8889 8823
1367.7651 8754 8682 8612 8549 8500 8471 8464 8482 8524 8589 8677 8785 8908
1374.0327 9032 9143 9228 9287 9325 9349 9362 9367 9364 9354 9338 9319 9296
1380.3002 9271 9246 9219 9191 9162 9131 9097 9062 9027 8993 8960 8926 8890
1386.5677 8849 8802 8752 8706 8665 8629 8593 8555 8513 8466 8419 8373 8329
1392.8352 8286 8241 8191 8134 8072 8010 7950 7895 7841 7786 7726 7657 7579
1399.1028 7496 7417 7345 7278 7214 7150 7088 7031 6980 6938 6906 6886 6883
1405.3702 6895 6920 6954 6996 7047 7108 7178 7255 7336 7420 7504 7588 7669
1411.6378 7748 7826 7903 7981 8061 8141 8221 8301 8380 8458 8532 8598 8657
1417.9053 8713 8772 8837 8898 8943 8968 8981 8988 8992 8996 8999 9002 9002
1424.1729 8999 8994 8985 8973 8959 8943 8926 8908 8891 8874 8856 8835 8813
1430.4403 8792 8775 8760 8750 8741 8735 8731 8727 8723 8720 8716 8714 8710
1436.7079 8705 8696 8685 8671 8657 8641 8624 8604 8583 8560 8536 8511 8488
1442.9753 8465 8447 8434 8429 8430 8437 8450 8466 8488 8517 8552 8592 8629
1449.2429 8664 8695 8727 8762 8799 8840 8881 8919 8953 8983 9010 9033 9054
1455.5104 9075 9095 9116 9136 9151 9158 9159 9156 9151 9145 9138 9129 9118
1461.7780 9105 9091 9078 9066 9052 9034 9010 8983 8957 8934 8912 8890 8864
1468.0454 8836 8805 8774 8744 8715 8686 8655 8621 8578 8527 8474 8431 8397
1474.3130 8368 8338 8301 8255 8202 8148 8098 8054 8011 7968 7922 7873 7820
1480.5804 7765 7708 7651 7594 7540 7488 7437 7387 7338 7292 7249 7207 7165
1486.8480 7125 7087 7055 7029 7011 7002 7004 7016 7031 7045 7058 7075 7097
1493.1155 7124 7154 7187 7225 7276 7348 7437 7525 7598 7654 7706 7763 7821
1499.3831 7873 7910 7930 7936 7930 7912 7882 7843 7800 7757 7717 7683 7669
1505.6505 7717 7903 8231 8546 8750 8876 8967 9040 9100 9147 9182 9210 9232
1511.9181 9250 9264 9275 9283 9287 9289 9290 9289 9288 9285 9279 9272 9265
1518.1855 9259 9255 9252 9251 9253 9257 9260 9254 9241 9226 9214 9205 9199
1524.4531 9195 9192 9190 9187 9185 9183 9181 9179 9178 9175 9171 9165 9157
1530.7206 9147 9136 9126 9118 9111 9104 9094 9081 9064 9046 9026 9006 8986
1536.9882 8967 8950 8932 8910 8874 8823 8774 8740 8715 8690 8661 8629 8596
1543.2556 8565 8532 8496 8455 8413 8376 8345 8317 8290 8261 8228 8191 8149
1549.5232 8103 8055 8007 7962 7922 7884 7847 7806 7753 7683 7602 7526 7464
1555.7906 7413 7365 7314 7251 7167 7052 6917 6811 6743 6686 6634 6587 6545
1562.0582 6507 6475 6450 6440 6452 6493 6560 6641 6720 6789 6846 6891 6925
1568.3257 6951 6972 7001 7049 7117 7199 7298 7419 7564 7723 7880 8019 8134
1574.5933 8229 8325 8442 8581 8701 8773 8807 8824 8835 8842 8845 8841 8829
1580.8607 8810 8782 8747 8704 8653 8596 8534 8468 8400 8328 8254 8178 8100
1587.1283 8020 7939 7855 7768 7679 7587 7493 7398 7301 7206 7116 7031 6956
1593.3959 6894 6850 6828 6834 6870 6935 7030 7153 7302 7474 7665 7870 8087
1599.6633 8310 8537 8759 8970 9164 9339 9493 9627 9740 9835 9912 9977 10031
1605.9309 10078 10119 10154 10182 10204 10220 10233 10241 10245 10245 10241
1611.2341 10233 10223 10212 10200 10188 10177 10167 10156 10143 10121 10084
1616.5375 10030 9973 9927 9891 9854 9809 9751 9681 9603 9523 9444 9360 9256
1622.8049 9118 8949 8779 8639 8534 8452 8383 8325 8281 8263 8281 8335 8414
1629.0725 8505 8600 8700 8805 8911 9012 9098 9166 9216 9253 9279 9294 9292
1635.3400 9269 9227 9176 9122 9062 8996 8926 8858 8798 8751 8719 8705 8715
1641.6075 8752 8816 8897 8988 9078 9164 9246 9329 9417 9511 9605 9686 9749
1647.8750 9795 9830 9857 9877 9893 9904 9914 9923 9932 9945 9965 9991 10006
1654.1426 10012 10015 10019 10025 10032 10040 10048 10055 10061 10066 10070
1659.4458 10075 10080 10086 10091 10098 10104 10112 10121 10130 10138 10144
1664.7491 10148 10151 10154 10158 10162 10168 10174 10181 10189 10199 10210
1670.0524 10221 10232 10244 10254 10264 10273 10279 10285 10292 10298 10307
1675.3557 10317 10327 10337 10346 10354 10362 10369 10377 10386 10396 10408
1680.6589 10420 10432 10441 10447 10450 10448 10444 10444 10459 10479 10497
1685.9623 10510 10520 10529 10536 10543 10548 10553 10557 10559 10560 10561
1691.2655 10561 10562 10563 10566 10570 10574 10577 10578 10574 10565 10557
1696.5688 10556 10560 10567 10574 10581 10586 10583 10565 10537 10521 10517
1701.8721 10518 10519 10517 10513 10507 10499 10491 10483 10476 10469 10463
1707.1754 10459 10455 10451 10447 10441 10434 10426 10420 10414 10411 10408
1712.4786 10406 10402 10396 10388 10381 10375 10371 10370 10368 10363 10353
1717.7820 10340 10328 10321 10317 10314 10310 10306 10303 10301 10297 10292
1723.0852 10282 10270 10258 10247 10239 10232 10224 10214 10203 10193 10183
1728.3885 10175 10168 10158 10146 10132 10118 10107 10099 10093 10087 10080
1733.6918 10068 10051 10034 10019 10006 9994 9982 9969 9956 9943 9928 9912
1739.4772 9896 9882 9872 9866 9861 9857 9852 9846 9839 9830 9820 9809 9797
1745.7448 9786 9777 9769 9762 9754 9744 9734 9725 9718 9713 9708 9704 9699
1752.0122 9695 9690 9684 9678 9671 9663 9655 9647 9640 9635 9631 9628 9626
1758.2798 9623 9619 9615 9610 9606 9603 9601 9601 9600 9600 9600 9600 9598
1764.5472 9596 9592 9587 9580 9574 9568 9563 9559 9554 9548 9542 9535 9529
1770.8148 9524 9522 9525 9531 9534 9533 9531 9529 9529 9531 9535 9538 9539
1777.0823 9538 9536 9533 9532 9533 9534 9536 9537 9538 9538 9538 9537 9538
1783.3499 9539 9541 9544 9546 9548 9548 9547 9545 9543 9542 9541 9541 9540
1789.6173 9539 9536 9532 9526 9522 9522 9527 9534 9540 9542 9542 9539 9536
1795.8849 9533 9532 9532 9532 9532 9533 9533 9535 9536 9537 9538 9538 9537
1802.1523 9536 9535 9533 9530 9527 9525 9522 9519 9516 9513 9510 9507 9506
1808.4199 9506 9507 9509 9512 9515 9519 9522 9523 9524 9523 9522 9520 9517
1814.6874 9513 9509 9506 9503 9500 9497 9494 9492 9491 9494 9501 9509 9516
1820.9550 9518 9513 9504 9494 9485 9481 9483 9491 9502 9512 9517 9516 9509
1827.2224 9500 9490 9480 9474 9473 9477 9483 9488 9488 9486 9483 9481 9483
1833.4900 9487 9493 9496 9497 9496 9493 9491 9491 9493 9496 9497 9497 9494
1839.7574 9489 9485 9481 9480 9480 9482 9485 9489 9492 9494 9495 9493 9490
1846.0250 9486 9484 9483 9484 9487 9488 9488 9486 9484 9484 9488 9495 9504
1852.2925 9511 9515 9514 9509 9504 9500 9500 9502 9503 9501 9494 9483 9473
1858.5601 9468 9470 9480 9492 9503 9507 9504 9496 9486 9478 9473 9472 9472
1864.8275 9474 9475 9476 9475 9474 9471 9469 9470 9476 9486 9494 9496 9491
1871.0951 9482 9471 9463 9459 9458 9459 9457 9453 9448 9445 9444 9446 9447
1877.3625 9447 9446 9446 9450 9459 9472 9484 9490 9486 9472 9453 9435 9424
1883.6301 9423 9429 9440 9450 9454 9454 9451 9448 9448 9453 9461 9471 9479
1889.8976 9480 9474 9464 9451 9441 9435 9436 9443 9452 9460 9461 9455 9444
1896.1652 9431 9420 9415 9416 9422 9430 9438 9443 9443 9440 9434 9428 9422
1902.4326 9416 9412 9410 9411 9416 9426 9436 9444 9448 9447 9442 9436 9431
1908.7002 9427 9424 9424 9426 9434 9447 9464 9482 9497 9505 9505 9497 9484
1914.9677 9472 9463 9460 9460 9462 9460 9451 9437 9420 9408 9401 9402 9409
1921.2352 9419 9431 9441 9448 9453 9457 9464 9474 9483 9489 9489 9484 9476
1927.5027 9469 9466 9468 9470 9471 9469 9465 9462 9459 9456 9450 9439 9427
1933.7703 9418 9419 9431 9452 9475 9490 9494 9489 9483 9483 9493 9510 9525
1940.0377 9530 9521 9497 9462 9424 9394 9380 9380 9392 9409 9428 9447 9465
1946.3053 9479 9487 9486 9477 9461 9444 9431 9426 9427 9432 9435 9436 9434
1952.5728 9433 9433 9431 9425 9413 9399 9389 9393 9412 9444 9481 9512 9530
1958.8403 9535 9527 9512 9491 9464 9431 9396 9369 9359 9373 9407 9452 9492
1965.1078 9515 9513 9487 9447 9408 9386 9386 9404 9428 9443 9442 9427 9412
1971.3754 9411 9431 9467 9504 9524 9519 9490 9450 9414 9391 9382 9379 9372
1977.6428 9359 9342 9331 9332 9343 9356 9361 9350 9329 9306 9293 9298 9318
1983.9104 9347 9377 9401 9418 9427 9429 9424 9412 9399 9392 9395 9408 9424
1990.1779 9441 9453 9461 9463 9460 9451 9436 9418 9400 9388 9387 9396 9413
1996.4454 9432 9446 9449 9443 9431 9416 9403 9390 9377 9365 9359 9366 9386
2002.7129 9414 9435 9439 9422 9397 9383 9398 9446 9511 9568 9594 9578 9527
2008.9805 9460 9397 9351 9326 9319 9322 9328 9333 9335 9338 9345 9356 9368
2015.2479 9379 9387 9394 9404 9421 9439 9452 9448 9426 9389 9349 9320 9313
2021.5155 9332 9373 9426 9477 9515 9530 9519 9487 9440 9394 9366 9371 9416
2027.7830 9495 9587 9659 9679 9633 9537 9426 9344 9322 9363 9442 9522 9568
2034.0505 9568 9532 9484 9447 9431 9433 9445 9458 9471 9485 9500 9515 9521
2040.3180 9510 9481 9441 9408 9395 9409 9442 9477 9501 9510 9508 9507 9513
2046.5856 9521 9522 9505 9471 9431 9402 9396 9412 9438 9458 9459 9443 9418
2052.8530 9397 9390 9397 9412 9425 9428 9424 9416 9411 9411 9416 9421 9422
2059.1206 9420 9416 9412 9411 9411 9411 9409 9405 9402 9401 9403 9407 9411
2065.3882 9411 9408 9403 9398 9395 9394 9395 9396 9399 9403 9412 9423 9433
2071.6555 9437 9431 9416 9400 9389 9389 9399 9413 9423 9421 9406 9383 9359
2077.9231 9343 9338 9344 9356 9370 9383 9395 9407 9420 9434 9446 9453 9455
2084.1907 9451 9444 9435 9426 9417 9408 9401 9397 9395 9396 9398 9398 9397
2090.4583 9396 9396 9397 9397 9396 9393 9388 9383 9380 9379 9383 9392 9405
2096.7256 9418 9423 9417 9400 9377 9359 9356 9370 9396 9424 9443 9447 9435
2102.9932 9415 9394 9379 9376 9381 9393 9405 9413 9418 9421 9426 9432 9439
2109.2607 9442 9440 9431 9421 9413 9409 9408 9408 9406 9403 9401 9402 9406
2115.5283 9412 9418 9422 9425 9427 9430 9434 9436 9435 9430 9421 9411 9403
2121.7957 9400 9401 9404 9405 9401 9392 9383 9378 9378 9385 9395 9404 9407
2128.0632 9402 9390 9374 9357 9344 9339 9343 9355 9372 9391 9409 9423 9433
2134.3308 9437 9433 9419 9395 9368 9344 9333 9338 9359 9390 9421 9445 9459
2140.5984 9462 9456 9443 9422 9396 9369 9345 9328 9321 9323 9332 9347 9366
2146.8657 9390 9419 9447 9467 9472 9460 9439 9419 9409 9413 9427 9441 9445
2153.1333 9436 9415 9393 9379 9379 9391 9405 9414 9415 9414 9420 9441 9476
2159.4009 9515 9544 9557 9557 9551 9543 9533 9518 9498 9475 9457 9449 9449
2165.6685 9454 9456 9455 9453 9454 9456 9455 9445 9424 9399 9382 9389 9423
2171.9358 9478 9538 9583 9600 9587 9556 9520 9493 9478 9471 9469 9467 9469
2178.2034 9476 9488 9498 9499 9485 9461 9437 9425 9430 9450 9473 9490 9497
2184.4709 9494 9486 9474 9458 9439 9419 9405 9401 9407 9416 9418 9406 9380
2190.7385 9349 9327 9322 9335 9357 9376 9380 9368 9347 9329 9327 9345 9378
2197.0059 9418 9452 9474 9481 9477 9466 9450 9432 9411 9388 9365 9346 9337
2203.2734 9341 9358 9384 9411 9431 9436 9428 9409 9387 9369 9358 9353 9350
2209.5410 9350 9353 9362 9379 9401 9424 9442 9452 9456 9458 9459 9459 9454
2215.8086 9444 9429 9416 9409 9408 9408 9405 9395 9381 9366 9352 9343 9339
2222.0759 9340 9349 9364 9385 9405 9421 9426 9420 9404 9384 9363 9345 9333
2228.3435 9327 9330 9343 9364 9387 9406 9413 9407 9390 9371 9357 9352 9354
2234.6111 9360 9364 9365 9363 9359 9352 9345 9337 9330 9329 9333 9342 9354
2240.8787 9366 9376 9386 9395 9403 9407 9406 9398 9384 9367 9351 9339 9333
2247.1460 9333 9340 9352 9369 9387 9402 9410 9409 9401 9391 9384 9384 9388
2253.4136 9392 9394 9390 9384 9380 9381 9389 9399 9408 9411 9410 9406 9402
2259.6812 9401 9402 9406 9411 9416 9419 9419 9415 9406 9392 9375 9358 9344
2265.9487 9337 9337 9342 9350 9358 9363 9366 9367 9367 9365 9361 9355 9349
2272.2161 9345 9344 9349 9359 9373 9388 9399 9404 9403 9396 9386 9376 9369
2278.4836 9365 9363 9363 9363 9363 9364 9367 9371 9376 9380 9382 9382 9379
2284.7512 9376 9373 9371 9372 9376 9382 9388 9391 9391 9388 9384 9380 9377
2291.0188 9374 9370 9365 9362 9364 9372 9383 9393 9398 9396 9388 9379 9371
2297.2861 9368 9367 9369 9370 9369 9368 9365 9363 9362 9362 9363 9364 9365
2303.5537 9365 9364 9361 9356 9349 9343 9340 9341 9345 9352 9359 9363 9361
2309.8213 9356 9346 9338 9333 9335 9343 9356 9369 9380 9384 9383 9376 9365
2316.0889 9352 9340 9333 9331 9334 9342 9350 9356 9358 9358 9356 9354 9352
2322.3562 9348 9342 9335 9329 9325 9325 9329 9335 9343 9351 9357 9360 9358
2328.6238 9350 9338 9323 9309 9297 9289 9283 9280 9277 9277 9280 9288 9299
2334.8914 9310 9319 9325 9327 9326 9322 9316 9311 9307 9305 9308 9313 9319
2341.1589 9322 9323 9322 9319 9315 9309 9302 9294 9287 9286 9290 9298 9307
2347.4263 9313 9316 9316 9314 9312 9310 9311 9314 9319 9322 9321 9313 9300
2353.6938 9284 9267 9253 9241 9230 9221 9213 9205 9197 9189 9181 9177 9180
2359.9614 9194 9219 9251 9283 9305 9314 9309 9294 9274 9255 9240 9232 9230
2366.2290 9234 9241 9251 9263 9274 9285 9294 9297 9294 9287 9278 9270 9267
2372.4963 9268 9274 9280 9286 9290 9292 9295 9298 9302 9307 9311 9313 9311
2378.7639 9307 9302 9299 9300 9304 9310 9315 9318 9317 9315 9312 9310 9309
2385.0315 9310 9312 9315 9318 9320 9320 9317 9311 9302 9293 9288 9288 9293
2391.2991 9302 9311 9317 9320 9319 9317 9315 9314 9313 9313 9312 9311 9309
2397.5664 9308 9306 9303 9301 9298 9296 9295 9294 9295 9296 9297 9298 9300
2403.8340 9303 9307 9309 9311 9311 9309 9307 9306 9305 9305 9305 9305 9306
2410.1016 9306 9308 9310 9313 9314 9314 9313 9312 9311 9313 9316 9320 9323
2416.3691 9326 9326 9325 9323 9320 9317 9316 9316 9319 9323 9326 9325 9321
2422.6365 9314 9306 9302 9302 9307 9314 9320 9323 9323 9321 9319 9317 9316
2428.9041 9314 9312 9308 9305 9303 9305 9310 9317 9325 9331 9334 9334 9331
2435.1716 9328 9324 9320 9316 9313 9310 9307 9306 9306 9308 9312 9317 9322
2441.4392 9324 9323 9318 9313 9308 9306 9306 9307 9308 9309 9310 9313 9316
2447.7065 9318 9316 9311 9303 9296 9291 9290 9293 9298 9303 9308 9310 9310
2453.9741 9309 9308 9308 9308 9308 9306 9303 9299 9297 9297 9302 9307 9313
2460.2417 9316 9315 9312 9307 9303 9298 9295 9293 9293 9295 9300 9305 9309
2466.5093 9312 9313 9313 9312 9310 9307 9303 9300 9298 9299 9302 9306 9310
2472.7766 9313 9312 9309 9305 9299 9293 9287 9282 9279 9278 9280 9283 9286
2479.0442 9289 9290 9291 9291 9291 9290 9288 9286 9283 9280 9278 9275 9273
2485.3118 9272 9274 9279 9287 9295 9301 9304 9303 9300 9295 9290 9285 9280
2491.5793 9277 9274 9274 9276 9279 9283 9288 9292 9294 9295 9293 9290 9288
2497.8467 9287 9288 9290 9291 9290 9288 9286 9285 9287 9291 9295 9298 9299
2504.1143 9298 9295 9294 9295 9298 9305 9310 9314 9312 9305 9295 9283 9273
2510.3818 9267 9263 9263 9265 9266 9268 9268 9269 9271 9275 9280 9284 9286
2516.6494 9285 9282 9279 9280 9285 9294 9305 9316 9323 9326 9324 9318 9311
2522.9167 9303 9296 9290 9287 9285 9286 9287 9290 9292 9293 9292 9291 9289
2529.1843 9288 9288 9288 9287 9285 9282 9280 9281 9284 9289 9293 9297 9298
2535.4519 9298 9297 9296 9295 9293 9288 9284 9281 9282 9286 9291 9295 9295
2541.7195 9291 9284 9276 9270 9265 9262 9261 9262 9265 9271 9278 9285 9290
2547.9868 9292 9293 9293 9292 9293 9293 9293 9292 9289 9285 9281 9278 9276
2554.2544 9276 9275 9275 9274 9274 9274 9275 9275 9272 9268 9263 9259 9257
2560.5220 9257 9257 9258 9259 9260 9262 9266 9269 9272 9272 9272 9273 9274
2566.7896 9277 9278 9276 9270 9260 9249 9241 9236 9237 9242 9249 9254 9258
2573.0569 9258 9256 9251 9246 9242 9239 9237 9237 9238 9239 9239 9240 9240
2579.3245 9241 9241 9242 9242 9240 9237 9233 9231 9230 9229 9228 9225 9219
2585.5920 9212 9206 9201 9200 9200 9200 9198 9195 9192 9190 9191 9193 9195
2591.8596 9195 9193 9189 9185 9181 9180 9179 9180 9181 9183 9185 9188 9192
2598.1272 9196 9199 9203 9205 9208 9212 9214 9216 9216 9215 9212 9210 9208
2604.3945 9206 9205 9205 9205 9206 9207 9209 9210 9210 9210 9210 9209 9208
2610.6621 9207 9205 9203 9201 9200 9199 9198 9196 9193 9188 9183 9180 9180
2616.9297 9184 9188 9192 9194 9194 9191 9188 9185 9182 9180 9179 9178 9179
2623.1973 9179 9180 9181 9182 9181 9181 9180 9180 9180 9181 9181 9179 9177
2629.4646 9174 9171 9168 9166 9164 9163 9161 9160 9158 9157 9155 9153 9150
2635.7322 9148 9147 9147 9148 9148 9148 9146 9143 9141 9141 9143 9146 9148
2641.9998 9146 9143 9139 9135 9135 9135 9135 9134 9131 9126 9123 9121 9122
2648.2673 9123 9124 9123 9121 9119 9116 9115 9114 9114 9114 9115 9116 9117
2654.5347 9117 9117 9116 9114 9112 9111 9110 9110 9110 9111 9111 9110 9109
2660.8022 9108 9107 9106 9105 9103 9102 9100 9098 9096 9095 9095 9095 9095
2667.0698 9094 9093 9092 9091 9089 9087 9085 9083 9082 9081 9081 9080 9079
2673.3374 9078 9077 9077 9079 9080 9082 9082 9081 9079 9076 9072 9070 9068
2679.6047 9066 9065 9063 9061 9058 9056 9054 9053 9052 9051 9048 9046 9044
2685.8723 9043 9043 9043 9043 9042 9038 9034 9029 9024 9022 9023 9026 9031
2692.1399 9034 9036 9035 9033 9031 9029 9027 9026 9027 9028 9030 9033 9036
2698.4075 9039 9041 9042 9043 9044 9047 9050 9054 9057 9058 9059 9057 9056
2704.6748 9053 9050 9047 9044 9042 9041 9041 9043 9044 9046 9045 9044 9041
2710.9424 9036 9032 9028 9026 9026 9027 9029 9031 9031 9030 9027 9023 9019
2717.2100 9015 9013 9011 9011 9013 9014 9016 9016 9014 9012 9008 9006 9005
2723.4775 9006 9008 9011 9012 9011 9010 9008 9008 9009 9011 9014 9018 9022
2729.7449 9025 9027 9027 9026 9023 9020 9017 9014 9012 9011 9009 9009 9009
2736.0125 9011 9013 9015 9017 9019 9021 9024 9027 9030 9033 9036 9036 9034
2742.2800 9031 9028 9025 9024 9025 9026 9029 9031 9032 9032 9032 9032 9031
2748.5476 9030 9027 9023 9020 9018 9018 9021 9025 9030 9033 9034 9033 9030
2754.8149 9027 9025 9024 9024 9025 9026 9027 9028 9029 9030 9032 9034 9036
2761.0825 9038 9039 9038 9035 9031 9027 9022 9019 9016 9015 9015 9015 9017
2767.3501 9018 9018 9017 9015 9011 9006 9001 8997 8994 8991 8988 8985 8981
2773.6177 8978 8975 8974 8973 8974 8975 8976 8977 8976 8975 8974 8975 8978
2779.8850 8984 8991 8998 9004 9008 9010 9012 9015 9019 9026 9035 9045 9054
2786.1526 9062 9068 9072 9076 9079 9084 9090 9096 9102 9107 9111 9114 9116
2792.4202 9116 9116 9115 9116 9117 9120 9124 9127 9129 9128 9125 9121 9117
2798.6877 9113 9111 9111 9113 9116 9120 9124 9129 9133 9138 9142 9146 9151
2804.9551 9155 9160 9164 9168 9172 9175 9176 9177 9176 9176 9177 9179 9183
2811.2227 9187 9191 9194 9197 9199 9202 9203 9204 9203 9201 9200 9199 9199
2817.4902 9200 9201 9200 9198 9194 9189 9185 9181 9179 9178 9176 9174 9171
2823.7578 9167 9165 9162 9161 9159 9158 9155 9152 9148 9144 9140 9137 9134
2830.0251 9133 9133 9134 9135 9135 9135 9135 9136 9137 9139 9141 9143 9143
2836.2927 9142 9139 9137 9134 9131 9129 9128 9127 9126 9126 9125 9125 9126
2842.5603 9127 9130 9133 9136 9140 9143 9146 9148 9148 9147 9144 9140 9135
2848.8279 9132 9131 9131 9132 9135 9137 9138 9139 9139 9138 9138 9137 9137
2855.0952 9137 9137 9137 9137 9136 9134 9133 9132 9132 9132 9132 9131 9127
2861.3628 9123 9119 9117 9117 9118 9121 9123 9125 9126 9126 9126 9126 9125
2867.6304 9125 9123 9121 9120 9119 9119 9121 9124 9127 9131 9133 9134 9134
2873.8979 9136 9138 9143 9148 9153 9159 9164 9169 9175 9182 9188 9194 9200
2880.1653 9204 9209 9215 9223 9233 9243 9251 9259 9266 9273 9281 9291 9300
2886.4329 9309 9315 9320 9325 9330 9338 9348 9358 9367 9372 9373 9372 9370
2892.7004 9369 9371 9375 9380 9386 9393 9401 9410 9419 9428 9436 9443 9447
2898.9680 9449 9450 9451 9452 9454 9457 9460 9465 9470 9477 9483 9488 9491
2905.2354 9492 9493 9494 9498 9503 9508 9512 9512 9511 9510 9511 9515 9520
2911.5029 9524 9528 9530 9532 9533 9534 9535 9534 9533 9529 9523 9518 9512
2917.7705 9508 9506 9506 9505 9505 9504 9503 9503 9503 9504 9504 9501 9498
2924.0381 9494 9491 9490 9491 9493 9495 9498 9499 9499 9498 9495 9493 9492
2930.3054 9493 9497 9500 9503 9503 9500 9496 9493 9490 9489 9488 9488 9488
2936.5730 9486 9484 9480 9474 9467 9461 9457 9457 9459 9461 9463 9463 9461
2942.8406 9458 9455 9451 9448 9446 9444 9443 9442 9443 9443 9443 9443 9443
2949.1082 9443 9445 9448 9452 9455 9457 9457 9456 9456 9456 9457 9458 9459
2955.3755 9459 9458 9458 9459 9462 9467 9473 9479 9484 9488 9492 9496 9500
2961.6431 9505 9510 9513 9515 9516 9517 9517 9518 9518 9520 9524 9530 9538
2967.9106 9547 9555 9562 9568 9573 9579 9584 9590 9595 9599 9601 9602 9603
2974.1782 9605 9609 9615 9622 9628 9632 9633 9632 9631 9632 9635 9640 9645
2980.4456 9650 9654 9657 9659 9662 9665 9668 9671 9674 9677 9680 9684 9687
2986.7131 9690 9692 9692 9691 9689 9687 9686 9685 9684 9684 9684 9684 9683
2992.9807 9682 9680 9678 9675 9673 9672 9671 9671 9670 9669 9668 9668 9669
2999.2483 9671 9673 9675 9677 9677 9674 9669 9662 9655 9650 9647 9648 9649
3005.5156 9650 9648 9644 9639 9636 9634 9635 9637 9638 9635 9630 9622 9613
3011.7832 9606 9600 9596 9592 9588 9583 9577 9571 9566 9564 9563 9564 9563
3018.0508 9560 9554 9546 9537 9528 9520 9514 9508 9503 9499 9495 9492 9488
3024.3184 9483 9476 9467 9458 9449 9442 9438 9436 9435 9433 9430 9425 9420
3030.5857 9415 9412 9410 9408 9405 9402 9398 9394 9390 9388 9388 9389 9393
3036.8533 9396 9398 9399 9397 9394 9390 9387 9385 9385 9386 9389 9393 9399
3043.1208 9405 9410 9413 9415 9417 9419 9420 9422 9424 9425 9426 9428 9431
3049.3884 9434 9439 9444 9450 9458 9465 9473 9480 9486 9490 9492 9493 9493
3055.6558 9495 9500 9508 9518 9529 9538 9544 9547 9547 9549 9552 9557 9564
3061.9233 9570 9576 9580 9582 9582 9581 9578 9574 9568 9561 9554 9546 9541
3068.1909 9537 9537 9538 9538 9535 9528 9518 9507 9497 9488 9480 9475 9471
3074.4585 9470 9471 9472 9474 9475 9476 9479 9483 9490 9498 9505 9511 9516
3080.7258 9520 9527 9535 9546 9557 9567 9577 9587 9597 9608 9616 9623 9626
3086.9934 9628 9631 9636 9644 9651 9657 9659 9657 9653 9648 9645 9645 9648
3093.2610 9653 9659 9666 9672 9677 9681 9684 9686 9686 9686 9686 9686 9686
3099.5286 9683 9680 9675 9671 9669 9673 9679 9687 9695 9698 9698 9696 9693
3105.7959 9690 9689 9687 9685 9680 9674 9667 9662 9660 9661 9663 9666 9669
3112.0635 9671 9672 9675 9678 9681 9684 9685 9684 9682 9681 9683 9687 9693
3118.3311 9697 9699 9697 9693 9690 9692 9698 9709 9722 9734 9743 9751 9758
3124.5986 9766 9775 9785 9794 9802 9807 9810 9810 9808 9805 9802 9800 9801
3130.8660 9805 9812 9820 9828 9836 9842 9846 9849 9852 9856 9863 9872 9882
3137.1335 9890 9896 9898 9895 9892 9888 9887 9888 9890 9895 9900 9906 9913
3143.4011 9920 9926 9931 9934 9936 9936 9937 9937 9938 9939 9940 9941 9943
3149.6687 9945 9949 9954 9959 9963 9965 9963 9959 9955 9952 9952 9955 9959
3155.9360 9963 9966 9969 9971 9973 9975 9977 9977 9977 9977 9976 9976 9975
3162.2036 9974 9973 9973 9975 9977 9981 9984 9986 9989 9992 9996 10000 10003
3168.4712 10005 10004 10002 9999 9997 9996 9997 10000 10005 10011 10017 10020
3174.2566 10022 10021 10019 10016 10014 10012 10010 10009 10008 10008 10009
3179.5598 10010 10011 10010 10007 10003 9999 9998 9998 10000 10002 10004 10006
3185.3452 10007 10008 10009 10012 10014 10014 10014 10013 10013 10015 10017
3190.6484 10018 10016 10010 10002 9995 9990 9988 9991 9995 10000 10006 10013
3196.4338 10019 10023 10026 10028 10027 10027 10026 10026 10025 10023 10021
3201.7373 10019 10016 10013 10008 10003 9997 9991 9987 9985 9986 9989 9992
3207.5227 9994 9993 9989 9982 9975 9971 9970 9973 9976 9977 9976 9971 9964
3213.7900 9956 9949 9945 9945 9947 9950 9953 9953 9953 9954 9958 9965 9973
3220.0576 9981 9985 9984 9979 9973 9967 9965 9968 9973 9978 9979 9976 9967
3226.3252 9955 9944 9937 9936 9939 9945 9948 9949 9947 9943 9939 9938 9940
3232.5928 9943 9945 9945 9942 9939 9936 9936 9939 9943 9947 9950 9952 9953
3238.8601 9954 9954 9955 9956 9958 9961 9965 9969 9974 9977 9981 9983 9985
3245.1277 9986 9985 9984 9982 9979 9976 9971 9965 9960 9955 9950 9945 9939
3251.3953 9931 9923 9915 9909 9904 9901 9899 9896 9895 9893 9894 9896 9901
3257.6628 9909 9918 9929 9940 9951 9962 9973 9983 9992 9999 10003 10005 10005
3263.9302 10007 10010 10014 10020 10025 10028 10031 10032 10032 10032 10032
3269.2336 10031 10030 10030 10030 10031 10033 10034 10035 10034 10032 10030
3274.5369 10027 10026 10026 10028 10032 10037 10040 10041 10039 10035 10031
3279.8401 10028 10028 10030 10035 10040 10043 10045 10044 10043 10042 10042
3285.1433 10042 10040 10036 10030 10024 10018 10013 10009 10007 10005 10003
3290.4468 10003 10006 10012 10021 10031 10039 10043 10041 10034 10024 10015
3295.7500 10009 10007 10009 10012 10013 10013 10010 10006 10002 10000 9999
3301.0532 9997 9994 9990 9986 9984 9986 9989 9993 9995 9993 9989 9983 9978
3307.3208 9976 9978 9982 9987 9991 9992 9989 9982 9975 9969 9967 9970 9976
3313.5884 9981 9982 9979 9972 9966 9961 9960 9961 9963 9963 9959 9952 9943
3319.8557 9936 9932 9933 9938 9946 9952 9955 9954 9951 9948 9945 9944 9943
3326.1233 9942 9938 9932 9925 9917 9911 9908 9909 9912 9917 9920 9921 9919
3332.3909 9915 9912 9910 9908 9907 9905 9902 9897 9891 9884 9877 9870 9864
3338.6584 9860 9857 9854 9851 9848 9846 9845 9846 9849 9853 9855 9854 9848
3344.9258 9839 9827 9815 9804 9796 9791 9790 9791 9792 9791 9788 9782 9775
3351.1934 9766 9756 9746 9736 9728 9722 9717 9712 9707 9700 9691 9683 9675
3357.4609 9668 9661 9655 9648 9639 9629 9616 9601 9583 9563 9544 9526 9508
3363.7285 9490 9472 9454 9436 9418 9399 9378 9353 9327 9298 9267 9236 9202
3369.9958 9166 9127 9085 9041 8996 8950 8901 8850 8798 8744 8690 8640 8594
3376.2634 8557 8531 8516 8515 8527 8554 8595 8649 8715 8787 8860 8928 8987
3382.5310 9037 9076 9106 9126 9135 9131 9117 9098 9078 9064 9060 9067 9087
3388.7986 9117 9157 9204 9258 9318 9385 9459 9537 9616 9690 9754 9807 9846
3395.0659 9876 9897 9915 9931 9948 9964 9981 9997 10011 10022 10030 10034
3400.8513 10035 10034 10034 10036 10039 10042 10044 10045 10044 10043 10042
3406.1548 10041 10041 10040 10038 10037 10037 10038 10040 10042 10042 10042
3411.4580 10041 10040 10041 10041 10042 10041 10038 10033 10027 10021 10017
3416.7612 10014 10012 10010 10009 10009 10007 10004 10000 9995 9990 9986 9986
3422.5466 9987 9988 9987 9984 9979 9974 9970 9967 9964 9960 9957 9953 9950
3428.8142 9947 9945 9944 9943 9942 9941 9939 9935 9931 9926 9923 9921 9921
3435.0818 9921 9920 9918 9914 9908 9902 9895 9888 9881 9875 9869 9865 9862
3441.3491 9859 9856 9854 9852 9853 9855 9859 9863 9864 9862 9857 9848 9837
3447.6167 9827 9819 9812 9807 9804 9802 9799 9794 9786 9774 9760 9746 9733
3453.8843 9725 9721 9718 9716 9711 9704 9696 9688 9682 9678 9676 9674 9672
3460.1519 9667 9661 9653 9644 9634 9623 9613 9602 9591 9580 9568 9554 9539
3466.4192 9520 9501 9483 9467 9455 9445 9434 9418 9397 9372 9347 9324 9304
3472.6868 9286 9267 9244 9218 9189 9160 9132 9107 9083 9060 9039 9020 9005
3478.9543 8993 8985 8980 8978 8981 8988 9001 9020 9042 9069 9097 9125 9154
3485.2219 9182 9209 9237 9264 9290 9316 9339 9359 9376 9387 9391 9387 9375
3491.4893 9358 9337 9317 9299 9283 9268 9254 9239 9226 9214 9206 9201 9202
3497.7568 9208 9221 9244 9278 9322 9375 9434 9493 9550 9602 9646 9683 9713
3504.0244 9737 9758 9775 9790 9803 9815 9826 9838 9847 9855 9859 9862 9864
3510.2920 9868 9874 9881 9887 9889 9886 9880 9874 9870 9869 9870 9871 9870
3516.5593 9866 9860 9855 9851 9850 9851 9853 9855 9856 9854 9850 9844 9840
3522.8269 9837 9837 9837 9836 9832 9827 9821 9815 9810 9807 9805 9804 9805
3529.0945 9807 9809 9809 9807 9802 9797 9795 9796 9800 9803 9805 9802 9796
3535.3621 9790 9785 9783 9783 9782 9780 9774 9767 9760 9754 9750 9748 9748
3541.6294 9749 9751 9753 9755 9757 9757 9757 9755 9752 9749 9745 9741 9736
3547.8970 9731 9728 9727 9728 9731 9734 9734 9731 9723 9715 9707 9702 9701
3554.1646 9702 9703 9704 9703 9701 9698 9695 9692 9690 9689 9687 9687 9686
3560.4321 9687 9689 9691 9695 9697 9697 9693 9686 9675 9661 9648 9639 9637
3566.6997 9643 9655 9666 9673 9675 9673 9669 9666 9664 9663 9663 9662 9661
3572.9670 9657 9652 9647 9642 9640 9640 9641 9642 9643 9643 9643 9643 9643
3579.2346 9645 9647 9649 9651 9652 9652 9650 9646 9639 9632 9626 9622 9622
3585.5022 9624 9627 9627 9622 9612 9602 9595 9594 9595 9598 9601 9603 9605
3591.7698 9607 9610 9612 9612 9609 9604 9598 9593 9587 9583 9580 9579 9580
3598.0371 9584 9589 9592 9592 9588 9582 9576 9572 9572 9576 9583 9590 9597
3604.3047 9600 9600 9597 9590 9581 9571 9560 9549 9542 9540 9541 9545 9549
3610.5723 9552 9554 9556 9559 9564 9568 9568 9563 9554 9543 9533 9526 9523
3616.8398 9525 9531 9541 9552 9562 9565 9563 9555 9544 9534 9528 9525 9526
3623.1072 9530 9533 9536 9538 9536 9530 9520 9506 9489 9473 9463 9470 9493
3629.3748 9515 9524 9521 9512 9501 9491 9483 9476 9472 9470 9472 9477 9483
3635.6423 9490 9495 9497 9496 9491 9485 9480 9476 9475 9475 9474 9473 9471
3641.9099 9469 9467 9465 9463 9462 9459 9457 9455 9456 9462 9471 9482 9490
3648.1772 9492 9488 9481 9475 9471 9471 9470 9467 9462 9456 9450 9443 9438
3654.4448 9431 9424 9417 9411 9410 9413 9418 9423 9427 9430 9432 9434 9435
3660.7124 9435 9436 9438 9440 9442 9442 9439 9433 9424 9414 9407 9403 9403
3666.9800 9408 9416 9426 9436 9441 9441 9435 9428 9422 9419 9416 9412 9405
3673.2473 9396 9385 9375 9374 9389 9412 9428 9435 9437 9435 9432 9429 9426
3679.5149 9425 9425 9425 9422 9415 9403 9391 9380 9375 9375 9380 9385 9387
3685.7825 9386 9385 9384 9387 9394 9400 9403 9401 9400 9402 9408 9417 9423
3692.0500 9424 9421 9415 9408 9402 9397 9394 9393 9392 9392 9392 9391 9390
3698.3174 9389 9389 9391 9395 9401 9411 9423 9432 9434 9430 9420 9409 9399
3704.5850 9393 9393 9396 9399 9401 9400 9397 9394 9391 9389 9387 9384 9381
3710.8525 9384 9394 9411 9426 9434 9434 9429 9423 9417 9410 9403 9395 9387
3717.1201 9380 9376 9377 9383 9390 9396 9399 9399 9400 9401 9403 9405 9404
3723.3875 9399 9393 9386 9380 9375 9372 9369 9366 9365 9365 9367 9372 9380
3729.6550 9389 9399 9408 9413 9409 9397 9381 9368 9360 9362 9373 9390 9405
3735.9226 9413 9414 9414 9414 9415 9415 9414 9411 9407 9404 9403 9404 9406
3742.1902 9408 9408 9406 9401 9392 9383 9376 9372 9369 9367 9367 9370 9378
3748.4575 9392 9408 9421 9426 9426 9423 9422 9423 9426 9427 9426 9422 9418
3754.7251 9414 9411 9410 9408 9404 9398 9389 9379 9371 9369 9375 9384 9393
3760.9927 9400 9404 9406 9407 9408 9407 9405 9401 9396 9391 9388 9387 9387
3767.2603 9388 9389 9392 9399 9410 9420 9425 9424 9418 9411 9404 9398 9394
3773.5276 9392 9392 9395 9400 9405 9408 9407 9403 9397 9394 9395 9402 9411
3779.7952 9417 9419 9417 9414 9412 9412 9412 9413 9412 9411 9409 9407 9407
3786.0627 9407 9408 9409 9410 9411 9412 9414 9416 9417 9415 9411 9406 9400
3792.3303 9397 9395 9394 9393 9392 9389 9387 9387 9393 9402 9413 9421 9426
3798.5977 9427 9426 9424 9419 9411 9403 9395 9392 9393 9395 9397 9400 9403
3804.8652 9406 9412 9419 9427 9431 9429 9423 9416 9410 9407 9405 9406 9406
3811.1328 9408 9409 9410 9410 9410 9407 9404 9399 9394 9394 9398 9404 9407
3817.4004 9405 9399 9391 9385 9381 9385 9397 9414 9426 9428 9424 9419 9413
3823.6677 9407 9400 9394 9390 9389 9391 9396 9401 9405 9407 9407 9406 9405
3829.9353 9405 9406 9410 9417 9424 9429 9430 9428 9424 9420 9418 9416 9414
3836.2029 9410 9406 9402 9402 9406 9410 9413 9412 9409 9404 9401 9399 9399
3842.4705 9400 9402 9404 9405 9406 9405 9404 9401 9400 9400 9402 9405 9406
3848.7378 9405 9402 9396 9388 9380 9371 9362 9355 9354 9365 9384 9399 9408
3855.0054 9411 9413 9417 9422 9428 9431 9430 9423 9413 9403 9394 9390 9390
3861.2729 9396 9404 9411 9416 9419 9421 9423 9426 9427 9426 9423 9418 9413
3867.5405 9409 9405 9403 9405 9409 9412 9412 9409 9404 9398 9393 9389 9387
3873.8079 9389 9394 9401 9407 9411 9414 9415 9416 9416 9418 9421 9426 9433
3880.0754 9438 9438 9431 9421 9410 9403 9398 9397 9397 9397 9397 9397 9399
3886.3430 9402 9405 9408 9411 9413 9416 9419 9422 9422 9418 9411 9404 9401
3892.6106 9401 9405 9410 9414 9414 9411 9405 9399 9393 9390 9391 9397 9406
3898.8779 9416 9422 9424 9422 9418 9415 9415 9418 9421 9424 9424 9421 9417
3905.1455 9412 9408 9404 9402 9401 9401 9405 9410 9417 9423 9427 9427 9424
3911.4131 9420 9415 9411 9408 9406 9406 9407 9407 9408 9410 9411 9414 9418
3917.6807 9422 9426 9429 9429 9426 9421 9415 9411 9410 9410 9411 9411 9410
3923.9480 9408 9408 9411 9414 9417 9419 9419 9420 9420 9422 9423 9422 9417
3930.2156 9411 9404 9400 9400 9403 9407 9410 9410 9408 9406 9405 9406 9410
3936.4832 9414 9418 9421 9422 9422 9422 9422 9423 9424 9425 9426 9425 9424
3942.7507 9423 9422 9423 9424 9425 9425 9424 9422 9419 9417 9416 9417 9419
3949.0181 9422 9424 9425 9423 9419 9416 9413 9413 9416 9419 9422 9423 9421
3955.2856 9420 9419 9420 9423 9425 9426 9425 9423 9421 9422 9424 9427 9429
3961.5532 9431 9429 9426 9423 9419 9416 9415 9415 9415 9416 9416 9416 9417
3967.8208 9418 9420 9421 9422 9423 9423 9423 9425 9427 9430 9432 9433 9431
3974.0881 9426 9420 9413 9408 9406 9408 9412 9416 9420 9422 9422 9422 9423
3980.3557 9424 9426 9426 9426 9424 9421 9420 9420 9421 9423 9424 9424 9422
3986.6233 9419 9416 9414 9414 9415 9419 9423 9428 9430 9430 9428 9425 9422
3992.8909 9421 9421 9421 9421 9420 9419 9418 9418 9419 9422 9424 9427 9429
3999.1582 9430 9429 9428
##END= 
