##TITLE= INCPOST29ORG
##JCAMP-DX= 4.24
##DATA TYPE= INFRARED SPECTRUM
##ORIGIN= JASCO
##OWNER= 
##DATE= 22/05/09
##TIME= 18:39:57
##SPECTROMETER/DATA SYSTEM= 
##RESOLUTION= 
##DELTAX=   0.48211674
##XUNITS= 1/CM
##YUNITS= TRANSMITTANCE
##XFACTOR= 1.00000
##YFACTOR= 0.0001
##FIRSTX=   599.7532
##LASTX=  4000.1226
##NPOINTS=     7054
##FIRSTY=      0.43911
##MAXY=      1.09719
##MINY=      0.43911
##XYDATA= (X++(Y..Y))
599.7532 4391 4439 4487 4525 4551 4569 4590 4622 4671 4733 4804 4878 4951 5023
606.5029 5092 5153 5201 5234 5252 5261 5274 5300 5349 5421 5514 5621 5731 5832
613.2525 5912 5960 5971 5950 5907 5853 5794 5726 5646 5550 5451 5365 5315 5314
620.0021 5365 5460 5583 5715 5841 5952 6047 6134 6227 6343 6495 6685 6903 7131
626.7518 7352 7557 7747 7925 8094 8253 8397 8522 8633 8738 8850 8973 9106 9235
633.5014 9343 9411 9432 9410 9362 9310 9276 9273 9305 9364 9436 9506 9559 9584
640.2510 9571 9509 9393 9223 9012 8780 8556 8372 8256 8230 8304 8469 8699 8951
647.0007 9182 9360 9472 9527 9548 9557 9567 9586 9611 9641 9668 9680 9671 9637
653.7503 9587 9535 9493 9471 9469 9481 9504 9535 9572 9614 9656 9696 9732 9764
660.4999 9796 9829 9863 9895 9923 9946 9968 9991 10018 10048 10079 10110 10138
666.7675 10163 10183 10190 10178 10162 10163 10178 10206 10246 10297 10355
672.0707 10409 10446 10455 10439 10405 10370 10347 10345 10368 10415 10480
677.3740 10552 10619 10669 10696 10702 10693 10674 10650 10622 10591 10561
682.6773 10533 10511 10492 10471 10443 10406 10360 10309 10258 10209 10164
687.9806 10120 10070 10006 9923 9819 9697 9563 9420 9272 9113 8937 8738 8514
694.2481 8268 8009 7747 7490 7243 7007 6783 6572 6380 6209 6066 5954 5877 5839
700.9977 5845 5897 5991 6123 6283 6464 6659 6863 7073 7285 7500 7717 7938 8158
707.7474 8369 8560 8721 8847 8944 9021 9091 9166 9252 9350 9456 9561 9656 9733
714.4970 9790 9829 9858 9880 9898 9912 9922 9927 9931 9938 9952 9975 10001
720.7645 10025 10041 10047 10044 10037 10028 10021 10016 10011 10004 9993 9976
726.5499 9953 9925 9896 9871 9854 9843 9835 9826 9815 9802 9791 9781 9772 9759
733.2996 9742 9726 9716 9722 9748 9789 9838 9882 9910 9916 9900 9869 9835 9811
740.0492 9801 9803 9808 9805 9794 9779 9769 9768 9769 9760 9729 9678 9615 9553
746.7988 9498 9450 9401 9346 9281 9208 9130 9052 8975 8903 8838 8778 8721 8660
753.5485 8593 8517 8435 8353 8280 8220 8175 8140 8109 8072 8027 7978 7932 7899
760.2981 7881 7873 7865 7848 7819 7778 7732 7687 7646 7608 7571 7533 7496 7459
767.0477 7425 7397 7375 7360 7349 7337 7321 7299 7274 7252 7237 7231 7229 7228
773.7974 7222 7211 7199 7189 7185 7185 7184 7180 7173 7167 7168 7181 7205 7239
780.5470 7278 7317 7355 7391 7427 7464 7500 7534 7563 7588 7609 7630 7655 7685
787.2966 7720 7757 7790 7819 7842 7865 7890 7922 7962 8007 8054 8101 8146 8189
794.0463 8228 8265 8303 8344 8393 8450 8513 8575 8631 8674 8705 8727 8748 8774
800.7959 8811 8860 8919 8983 9045 9099 9142 9178 9213 9253 9300 9352 9404 9450
807.5455 9489 9525 9567 9617 9673 9727 9771 9804 9829 9856 9892 9937 9983
813.8130 10022 10046 10057 10061 10069 10088 10121 10165 10218 10275 10334
819.1163 10390 10441 10481 10506 10511 10497 10464 10413 10345 10258 10146
824.4196 10007 9842 9654 9454 9256 9076 8933 8842 8817 8865 8983 9163 9385
830.6871 9626 9860 10065 10226 10334 10393 10410 10397 10369 10337 10308 10283
836.4725 10260 10234 10201 10158 10107 10051 9993 9935 9882 9834 9794 9762
842.2579 9735 9708 9678 9642 9606 9573 9548 9529 9513 9496 9475 9452 9431 9414
849.0076 9402 9392 9382 9373 9366 9363 9362 9363 9361 9354 9343 9331 9320 9312
855.7572 9309 9307 9306 9302 9297 9292 9288 9287 9288 9291 9293 9291 9286 9278
862.5068 9271 9266 9264 9266 9270 9275 9281 9285 9287 9288 9286 9284 9284 9287
869.2565 9291 9296 9299 9300 9300 9301 9304 9310 9317 9325 9331 9336 9338 9338
876.0061 9339 9342 9347 9353 9356 9354 9346 9334 9323 9315 9311 9309 9309 9309
882.7557 9311 9317 9326 9337 9345 9348 9348 9347 9348 9350 9355 9358 9360 9361
889.5054 9361 9363 9365 9369 9371 9373 9375 9376 9377 9378 9378 9377 9375 9374
896.2550 9374 9375 9378 9381 9383 9385 9387 9391 9395 9401 9404 9405 9402 9396
903.0046 9391 9387 9388 9395 9406 9421 9434 9444 9448 9446 9442 9436 9431 9430
909.7543 9431 9433 9438 9442 9446 9448 9448 9446 9443 9439 9436 9433 9430 9426
916.5039 9423 9421 9420 9423 9427 9434 9440 9444 9447 9447 9446 9445 9443 9440
923.2535 9436 9430 9424 9418 9414 9408 9401 9390 9375 9355 9330 9301 9267 9230
930.0032 9191 9154 9119 9087 9054 9019 8980 8937 8890 8845 8805 8778 8771 8788
936.7528 8832 8902 8989 9086 9183 9270 9346 9410 9466 9516 9563 9605 9640 9666
943.5024 9683 9692 9694 9693 9693 9697 9706 9723 9747 9776 9805 9826 9833 9822
950.2521 9796 9759 9721 9688 9664 9651 9645 9641 9636 9629 9620 9612 9606 9604
957.0017 9606 9612 9618 9623 9625 9623 9615 9599 9575 9546 9516 9489 9469 9457
963.7513 9447 9434 9409 9368 9310 9238 9155 9067 8981 8905 8848 8821 8830 8875
970.5010 8949 9040 9134 9219 9291 9346 9388 9418 9441 9458 9471 9482 9490 9496
977.2506 9498 9496 9492 9487 9483 9480 9479 9479 9479 9478 9477 9475 9470 9462
984.0002 9452 9442 9432 9425 9420 9417 9417 9418 9421 9424 9425 9420 9410 9394
990.7499 9374 9353 9332 9311 9292 9272 9251 9231 9211 9196 9189 9195 9213 9243
997.4995 9280 9318 9352 9378 9396 9408 9416 9423 9431 9442 9456 9474 9497 9522
1004.2491 9546 9564 9570 9562 9539 9503 9460 9415 9372 9331 9292 9254 9217
1010.5167 9182 9148 9118 9089 9061 9030 8995 8956 8915 8876 8840 8806 8771
1016.7842 8732 8685 8629 8567 8503 8441 8383 8330 8282 8237 8192 8141 8078
1023.0517 8000 7905 7793 7670 7541 7409 7277 7147 7026 6926 6866 6867 6949
1029.3192 7125 7392 7738 8138 8563 8982 9369 9707 9985 10197 10345 10430 10459
1035.5868 10440 10386 10315 10249 10205 10198 10231 10297 10385 10477 10562
1040.8900 10629 10675 10701 10709 10704 10690 10670 10642 10609 10572 10534
1046.1934 10498 10469 10447 10432 10422 10415 10408 10403 10398 10394 10390
1051.4966 10388 10387 10389 10395 10405 10418 10433 10445 10454 10459 10461
1056.7999 10463 10467 10474 10482 10490 10497 10503 10509 10517 10527 10541
1062.1031 10558 10576 10594 10610 10623 10635 10646 10661 10683 10713 10752
1067.4065 10797 10845 10890 10928 10956 10972 10972 10955 10920 10865 10790
1072.7097 10699 10596 10489 10385 10294 10220 10165 10127 10104 10091 10082
1078.0131 10076 10070 10062 10054 10043 10031 10018 10005 9992 9980 9969 9958
1083.7985 9947 9933 9918 9901 9884 9867 9849 9830 9811 9795 9782 9776 9776
1090.0659 9781 9786 9792 9798 9807 9822 9843 9870 9902 9935 9970 10004 10040
1096.3335 10077 10116 10154 10189 10219 10243 10262 10277 10289 10301 10312
1101.6367 10321 10327 10329 10327 10322 10313 10300 10283 10259 10225 10182
1106.9401 10130 10072 10014 9959 9908 9861 9816 9773 9729 9682 9633 9578 9518
1113.2075 9456 9393 9331 9271 9211 9149 9087 9024 8963 8906 8853 8804 8755
1119.4751 8705 8653 8601 8552 8509 8477 8457 8452 8464 8493 8539 8604 8688
1125.7426 8792 8913 9048 9193 9341 9488 9631 9768 9901 10029 10151 10265 10370
1132.0101 10463 10546 10619 10683 10739 10788 10827 10857 10876 10885 10885
1137.3134 10880 10871 10856 10836 10808 10770 10723 10668 10606 10539 10470
1142.6167 10400 10330 10262 10192 10117 10033 9934 9818 9685 9538 9379 9213
1148.4021 9042 8870 8699 8534 8376 8229 8093 7972 7867 7779 7711 7663 7633
1154.6696 7622 7629 7650 7682 7723 7767 7810 7853 7893 7930 7964 7995 8020
1160.9371 8040 8056 8069 8080 8091 8101 8108 8115 8121 8127 8135 8143 8152
1167.2046 8159 8165 8169 8172 8174 8176 8178 8182 8185 8189 8193 8195 8197
1173.4722 8201 8208 8219 8235 8255 8282 8318 8363 8415 8467 8506 8520 8500
1179.7396 8448 8375 8295 8221 8163 8122 8097 8083 8076 8072 8066 8057 8042
1186.0072 8022 7997 7970 7941 7912 7884 7855 7826 7794 7761 7726 7691 7654
1192.2747 7617 7578 7538 7495 7449 7402 7351 7297 7240 7179 7114 7046 6976
1198.5422 6903 6830 6757 6688 6628 6585 6568 6589 6654 6765 6917 7099 7296
1204.8097 7493 7679 7846 7990 8109 8203 8277 8332 8373 8403 8422 8434 8439
1211.0773 8439 8436 8433 8430 8428 8426 8423 8418 8411 8401 8392 8383 8376
1217.3447 8370 8364 8358 8351 8342 8332 8323 8314 8306 8299 8291 8283 8275
1223.6123 8267 8258 8248 8237 8225 8212 8198 8184 8170 8157 8147 8139 8134
1229.8798 8133 8137 8145 8158 8177 8201 8230 8262 8296 8331 8366 8401 8437
1236.1473 8471 8504 8535 8562 8585 8605 8623 8639 8655 8668 8678 8686 8691
1242.4148 8697 8704 8711 8719 8727 8734 8739 8742 8743 8744 8744 8745 8748
1248.6824 8755 8765 8778 8792 8807 8820 8833 8846 8861 8879 8898 8919 8940
1254.9498 8962 8985 9013 9045 9081 9122 9165 9211 9258 9308 9360 9413 9467
1261.2174 9520 9571 9617 9657 9692 9721 9746 9767 9784 9798 9809 9818 9829
1267.4849 9846 9872 9909 9956 10008 10061 10113 10160 10201 10235 10263 10284
1273.2703 10297 10303 10300 10285 10256 10209 10145 10063 9968 9863 9753 9643
1279.0557 9535 9430 9330 9238 9154 9080 9018 8965 8921 8883 8850 8822 8798
1285.3232 8780 8766 8754 8744 8735 8726 8719 8714 8710 8708 8707 8707 8706
1291.5907 8706 8706 8704 8700 8693 8685 8675 8664 8652 8639 8623 8605 8586
1297.8583 8567 8550 8535 8522 8512 8504 8499 8496 8494 8491 8485 8474 8457
1304.1257 8433 8401 8364 8323 8280 8236 8192 8147 8102 8057 8016 7979 7947
1310.3933 7922 7902 7887 7876 7869 7864 7860 7856 7850 7841 7828 7814 7798
1316.6608 7784 7771 7760 7750 7740 7729 7718 7706 7694 7681 7667 7651 7633
1322.9283 7612 7588 7562 7534 7507 7482 7458 7435 7413 7389 7364 7335 7304
1329.1958 7270 7234 7197 7159 7120 7079 7036 6991 6945 6899 6852 6805 6756
1335.4634 6703 6645 6583 6518 6454 6394 6341 6302 6285 6298 6343 6413 6499
1341.7308 6595 6694 6793 6885 6967 7032 7081 7113 7132 7139 7137 7125 7108
1347.9984 7087 7065 7041 7018 6994 6971 6949 6928 6909 6892 6877 6864 6854
1354.2659 6846 6840 6834 6828 6821 6813 6803 6793 6782 6772 6761 6750 6739
1360.5334 6727 6715 6705 6696 6688 6680 6670 6657 6641 6622 6601 6579 6557
1366.8009 6536 6516 6497 6479 6460 6442 6422 6402 6380 6356 6332 6307 6284
1373.0685 6261 6239 6216 6191 6164 6135 6104 6071 6037 6001 5963 5924 5884
1379.3359 5844 5804 5764 5723 5683 5644 5605 5566 5527 5486 5443 5398 5354
1385.6035 5312 5272 5232 5194 5155 5118 5083 5051 5021 4996 4975 4961 4952
1391.8710 4948 4950 4959 4981 5022 5087 5173 5262 5341 5406 5463 5522 5592
1398.1385 5682 5791 5907 6011 6095 6166 6233 6302 6375 6449 6523 6600 6685
1404.4060 6783 6893 7003 7104 7195 7280 7367 7458 7550 7639 7723 7800 7872
1410.6736 7939 8001 8052 8090 8114 8123 8121 8109 8087 8052 8003 7941 7870
1416.9410 7796 7721 7640 7537 7398 7245 7120 7040 6996 6972 6962 6971 7010
1423.2086 7095 7231 7399 7572 7739 7902 8068 8240 8410 8569 8711 8837 8953
1429.4761 9063 9163 9245 9308 9355 9393 9425 9451 9470 9482 9489 9493 9491
1435.7437 9475 9435 9376 9323 9290 9271 9258 9243 9227 9208 9191 9177 9168
1442.0111 9164 9163 9163 9163 9163 9164 9166 9170 9174 9176 9176 9173 9166
1448.2787 9161 9158 9159 9161 9163 9162 9159 9153 9148 9144 9144 9149 9156
1454.5461 9165 9175 9182 9182 9170 9145 9116 9094 9085 9083 9084 9087 9089
1460.8137 9090 9089 9090 9091 9094 9097 9099 9095 9084 9073 9067 9068 9075
1467.0812 9085 9096 9107 9118 9131 9146 9164 9184 9206 9226 9237 9233 9224
1473.3488 9222 9231 9245 9259 9270 9274 9270 9262 9252 9243 9235 9225 9213
1479.6162 9194 9168 9132 9091 9047 9006 8971 8943 8923 8911 8909 8918 8942
1485.8838 8987 9059 9162 9281 9401 9510 9610 9714 9831 9954 10059 10139 10198
1492.1512 10244 10282 10312 10334 10346 10343 10316 10256 10169 10082 10016
1497.4546 9973 9935 9889 9833 9777 9729 9687 9645 9593 9533 9470 9414 9370
1503.7220 9338 9312 9288 9258 9205 9109 8986 8901 8862 8841 8827 8816 8809
1509.9896 8804 8800 8794 8786 8775 8765 8758 8755 8755 8758 8762 8765 8763
1516.2571 8750 8725 8698 8682 8677 8679 8685 8693 8700 8702 8692 8675 8662
1522.5247 8658 8660 8663 8666 8667 8664 8659 8653 8648 8643 8637 8629 8619
1528.7921 8610 8603 8598 8596 8595 8596 8597 8596 8591 8578 8558 8540 8529
1535.0597 8524 8524 8525 8527 8530 8534 8538 8541 8540 8532 8524 8520 8517
1541.3271 8509 8495 8479 8467 8459 8455 8452 8447 8441 8435 8431 8429 8428
1547.5947 8429 8429 8429 8427 8421 8413 8404 8397 8392 8389 8387 8382 8374
1553.8622 8358 8339 8325 8317 8316 8318 8322 8328 8338 8347 8328 8266 8219
1560.1298 8198 8187 8180 8176 8170 8164 8156 8147 8137 8130 8126 8124 8122
1566.3972 8118 8114 8108 8102 8093 8078 8051 8018 7986 7958 7931 7902 7869
1572.6648 7834 7800 7770 7748 7740 7765 7858 8049 8279 8463 8590 8689 8778
1578.9323 8862 8935 8992 9029 9045 9046 9036 9017 8988 8950 8904 8851 8792
1585.1998 8729 8663 8594 8519 8434 8336 8222 8089 7940 7779 7612 7450 7301
1591.4674 7179 7091 7047 7049 7099 7192 7315 7451 7580 7688 7769 7821 7845
1597.7349 7845 7823 7784 7731 7668 7597 7521 7443 7366 7292 7222 7157 7096
1604.0024 7042 6993 6949 6910 6874 6843 6817 6797 6781 6771 6764 6761 6761
1610.2699 6762 6764 6767 6772 6779 6790 6802 6815 6826 6837 6850 6877 6936
1616.5375 7031 7131 7200 7243 7277 7316 7364 7420 7480 7538 7594 7653 7726
1622.8049 7825 7948 8066 8155 8217 8264 8306 8349 8398 8452 8507 8555 8591
1629.0725 8615 8630 8641 8649 8654 8655 8653 8648 8643 8635 8626 8613 8596
1635.3400 8577 8564 8556 8547 8534 8517 8496 8475 8452 8430 8408 8385 8362
1641.6075 8338 8313 8286 8259 8231 8203 8174 8142 8107 8069 8034 8007 7984
1647.8750 7956 7918 7876 7831 7787 7742 7696 7646 7589 7524 7466 7462 7479
1654.1426 7463 7427 7384 7338 7292 7244 7197 7151 7107 7063 7020 6977 6934
1660.4100 6893 6855 6820 6790 6763 6736 6706 6674 6639 6602 6562 6521 6479
1666.6776 6439 6402 6369 6344 6328 6325 6327 6325 6315 6298 6275 6248 6221
1672.9451 6196 6177 6169 6183 6229 6295 6348 6374 6382 6387 6394 6409 6437
1679.2126 6482 6543 6611 6672 6717 6748 6767 6783 6815 6908 7110 7301 7374
1685.4801 7392 7403 7420 7446 7480 7522 7571 7623 7674 7721 7762 7798 7828
1691.7477 7853 7873 7890 7902 7912 7919 7925 7937 7969 8029 8099 8161 8216
1698.0151 8265 8314 8375 8497 8774 9148 9404 9541 9640 9739 9850 9975 10109
1704.2827 10237 10344 10424 10482 10531 10579 10627 10672 10713 10749 10776
1709.5859 10795 10804 10811 10822 10841 10868 10898 10925 10944 10948 10939
1714.8893 10928 10924 10930 10936 10925 10875 10791 10725 10709 10730 10762
1720.1925 10795 10822 10841 10851 10851 10841 10826 10809 10795 10787 10782
1725.4958 10778 10772 10764 10756 10750 10746 10741 10730 10710 10681 10654
1730.7991 10641 10642 10655 10673 10685 10668 10594 10493 10437 10430 10444
1736.1024 10462 10478 10491 10501 10506 10501 10481 10446 10410 10389 10385
1741.4056 10391 10397 10397 10386 10366 10345 10331 10327 10328 10332 10335
1746.7090 10334 10327 10313 10296 10283 10276 10273 10269 10258 10241 10224
1752.0122 10214 10213 10219 10228 10236 10242 10244 10241 10232 10216 10196
1757.3156 10179 10167 10161 10160 10162 10164 10165 10158 10141 10115 10089
1762.6188 10073 10068 10070 10075 10080 10083 10084 10084 10080 10072 10060
1767.9221 10044 10033 10032 10039 10052 10067 10079 10080 10067 10043 10026
1773.2253 10020 10020 10021 10021 10020 10020 10023 10028 10036 10045 10051
1778.5287 10055 10056 10052 10043 10031 10019 10012 10010 10013 10019 10024
1783.8319 10025 10022 10013 10002 9993 9986 9982 9981 9982 9985 9988 9992 9997
1790.0995 10002 10006 10006 9999 9984 9964 9950 9944 9944 9946 9945 9940 9931
1796.3669 9923 9921 9925 9933 9942 9947 9946 9938 9927 9917 9910 9908 9908
1802.6345 9910 9913 9918 9922 9928 9934 9939 9943 9945 9946 9947 9950 9954
1808.9020 9959 9964 9965 9961 9955 9950 9949 9951 9956 9961 9966 9969 9971
1815.1696 9972 9973 9972 9970 9969 9967 9967 9969 9972 9975 9976 9976 9973
1821.4370 9968 9965 9963 9964 9967 9970 9969 9963 9956 9952 9955 9963 9974
1827.7046 9984 9989 9985 9970 9948 9931 9925 9930 9940 9949 9956 9958 9957
1833.9720 9955 9953 9953 9956 9962 9969 9975 9980 9982 9982 9981 9979 9978
1840.2396 9978 9978 9980 9983 9986 9988 9985 9974 9955 9935 9921 9915 9915
1846.5071 9917 9921 9925 9927 9927 9924 9919 9911 9905 9900 9897 9895 9894
1852.7747 9892 9891 9890 9890 9891 9890 9888 9884 9879 9873 9870 9870 9874
1859.0421 9880 9886 9890 9889 9886 9880 9875 9871 9870 9868 9866 9863 9860
1865.3097 9859 9859 9861 9866 9871 9875 9874 9865 9851 9834 9820 9812 9810
1871.5771 9814 9819 9825 9828 9829 9829 9830 9832 9834 9835 9834 9829 9823
1877.8447 9819 9817 9820 9827 9837 9848 9858 9866 9871 9873 9874 9872 9869
1884.1122 9864 9856 9848 9839 9835 9835 9840 9848 9858 9867 9870 9866 9855
1890.3798 9842 9831 9825 9826 9834 9847 9860 9869 9870 9864 9853 9841 9832
1896.6472 9826 9823 9823 9827 9838 9856 9876 9893 9903 9901 9890 9875 9860
1902.9148 9850 9845 9843 9841 9838 9833 9827 9823 9821 9820 9821 9821 9819
1909.1823 9815 9808 9802 9797 9797 9801 9809 9817 9824 9829 9827 9819 9804
1915.4498 9782 9758 9734 9716 9710 9713 9722 9727 9727 9724 9722 9723 9727
1921.7173 9733 9734 9729 9721 9716 9716 9720 9724 9722 9714 9699 9683 9670
1927.9849 9662 9660 9660 9660 9658 9653 9648 9645 9646 9651 9658 9664 9666
1934.2523 9665 9663 9665 9676 9693 9713 9729 9735 9731 9720 9710 9705 9705
1940.5199 9709 9710 9708 9703 9701 9705 9718 9734 9748 9758 9761 9759 9753
1946.7874 9749 9749 9753 9762 9772 9779 9780 9775 9764 9748 9729 9705 9675
1953.0549 9643 9611 9585 9571 9574 9593 9624 9660 9690 9707 9709 9701 9692
1959.3224 9690 9694 9692 9670 9622 9557 9497 9468 9486 9546 9627 9701 9744
1965.5900 9746 9712 9660 9611 9580 9575 9589 9611 9630 9637 9629 9610 9589
1971.8574 9579 9585 9608 9642 9679 9711 9738 9762 9786 9809 9824 9817 9780
1978.1250 9716 9641 9578 9546 9549 9580 9621 9653 9664 9653 9623 9583 9543
1984.3925 9511 9492 9490 9507 9540 9582 9624 9657 9676 9678 9664 9636 9596
1990.6600 9548 9502 9467 9455 9469 9502 9544 9585 9620 9647 9663 9667 9659
1996.9275 9638 9607 9573 9543 9524 9521 9531 9543 9550 9547 9537 9527 9526
2003.1951 9538 9557 9573 9580 9574 9559 9541 9522 9502 9483 9472 9481 9518
2009.4625 9577 9637 9668 9649 9579 9488 9413 9384 9404 9452 9495 9512 9504
2015.7301 9493 9508 9561 9639 9708 9737 9714 9650 9566 9483 9413 9360 9326
2021.9976 9313 9327 9365 9419 9476 9520 9543 9540 9516 9478 9440 9415 9417
2028.2651 9449 9504 9561 9596 9590 9544 9477 9420 9396 9415 9470 9541 9607
2034.5326 9653 9674 9670 9646 9606 9556 9506 9464 9436 9424 9424 9432 9441
2040.8002 9452 9464 9477 9488 9496 9500 9502 9506 9514 9524 9528 9521 9498
2047.0676 9459 9412 9370 9344 9342 9364 9402 9444 9480 9502 9508 9500 9480
2053.3352 9455 9430 9408 9393 9386 9391 9409 9438 9474 9507 9524 9519 9492
2059.6028 9453 9414 9388 9381 9390 9410 9435 9460 9480 9489 9481 9456 9419
2065.8701 9381 9358 9354 9369 9390 9405 9402 9381 9349 9319 9300 9295 9301
2072.1377 9311 9321 9329 9336 9347 9361 9378 9393 9404 9408 9405 9397 9385
2078.4053 9371 9356 9340 9328 9319 9314 9313 9312 9309 9305 9300 9297 9297
2084.6729 9301 9309 9318 9327 9336 9344 9350 9352 9350 9342 9331 9321 9316
2090.9402 9318 9326 9336 9343 9344 9341 9337 9338 9346 9358 9369 9375 9373
2097.2078 9367 9361 9357 9355 9354 9350 9342 9332 9322 9315 9311 9311 9314
2103.4753 9319 9323 9324 9323 9320 9319 9322 9331 9346 9364 9382 9395 9403
2109.7429 9402 9394 9378 9356 9335 9319 9313 9318 9332 9350 9364 9370 9367
2116.0103 9356 9342 9329 9320 9314 9309 9302 9291 9277 9265 9261 9267 9281
2122.2778 9298 9313 9322 9326 9330 9336 9340 9340 9330 9312 9291 9274 9266
2128.5454 9266 9269 9270 9263 9252 9240 9233 9234 9244 9261 9279 9292 9296
2134.8130 9290 9275 9259 9249 9249 9258 9268 9272 9261 9237 9204 9174 9156
2141.0803 9156 9171 9190 9205 9211 9211 9215 9227 9246 9266 9278 9280 9277
2147.3479 9277 9285 9299 9313 9319 9316 9312 9314 9327 9350 9375 9391 9391
2153.6155 9374 9341 9301 9257 9211 9162 9109 9054 9007 8986 9005 9066 9154
2159.8831 9239 9297 9318 9310 9287 9264 9245 9232 9225 9224 9232 9246 9262
2166.1504 9272 9273 9265 9254 9249 9255 9271 9294 9314 9323 9318 9301 9279
2172.4180 9260 9249 9247 9251 9260 9274 9296 9321 9341 9347 9337 9314 9293
2178.6855 9281 9281 9283 9273 9247 9211 9181 9171 9182 9202 9217 9215 9196
2184.9531 9173 9157 9160 9183 9221 9260 9286 9289 9267 9230 9194 9174 9180
2191.2205 9205 9237 9260 9265 9252 9227 9200 9177 9161 9151 9148 9154 9170
2197.4880 9194 9219 9238 9247 9246 9242 9239 9241 9248 9259 9271 9282 9292
2203.7556 9298 9299 9294 9284 9274 9268 9269 9278 9295 9316 9337 9353 9356
2210.0232 9344 9317 9285 9259 9252 9267 9297 9328 9347 9346 9327 9300 9274
2216.2905 9257 9253 9260 9275 9296 9316 9331 9335 9328 9313 9299 9292 9296
2222.5581 9308 9323 9336 9342 9340 9331 9314 9291 9264 9240 9227 9229 9245
2228.8257 9269 9293 9312 9323 9329 9330 9328 9322 9312 9302 9295 9294 9300
2235.0933 9311 9321 9326 9326 9324 9323 9326 9333 9338 9338 9331 9319 9306
2241.3606 9296 9290 9287 9286 9286 9285 9286 9290 9298 9309 9322 9335 9347
2247.6282 9357 9365 9370 9370 9366 9359 9352 9344 9338 9332 9328 9325 9323
2253.8958 9319 9311 9294 9270 9241 9217 9207 9215 9241 9276 9310 9333 9343
2260.1633 9339 9328 9314 9300 9286 9274 9264 9258 9257 9260 9265 9270 9273
2266.4307 9275 9277 9278 9279 9279 9278 9276 9273 9270 9265 9257 9246 9236
2272.6982 9231 9233 9244 9262 9282 9298 9306 9306 9300 9289 9279 9272 9269
2278.9658 9269 9271 9273 9276 9281 9291 9304 9317 9327 9332 9331 9327 9323
2285.2334 9323 9327 9333 9338 9339 9335 9325 9313 9303 9299 9303 9314 9327
2291.5007 9337 9342 9342 9339 9337 9336 9335 9335 9333 9332 9334 9339 9348
2297.7683 9358 9367 9373 9375 9372 9364 9352 9340 9330 9326 9327 9333 9340
2304.0359 9344 9346 9344 9341 9338 9337 9339 9343 9349 9356 9364 9370 9372
2310.3035 9371 9365 9357 9351 9347 9345 9346 9348 9352 9356 9361 9366 9368
2316.5708 9368 9364 9360 9357 9359 9366 9378 9392 9406 9417 9423 9426 9424
2322.8384 9418 9410 9401 9394 9393 9397 9405 9415 9421 9419 9411 9398 9388
2329.1060 9385 9392 9407 9426 9442 9453 9457 9458 9457 9456 9455 9452 9447
2335.3735 9443 9439 9436 9433 9429 9423 9418 9419 9426 9441 9460 9477 9488
2341.6409 9490 9486 9477 9468 9460 9456 9453 9450 9443 9432 9419 9408 9402
2347.9084 9401 9404 9408 9412 9416 9419 9424 9431 9440 9449 9458 9468 9482
2354.1760 9502 9526 9545 9550 9536 9505 9466 9431 9406 9394 9391 9398 9412
2360.4436 9432 9456 9476 9489 9492 9486 9475 9464 9459 9463 9473 9485 9492
2366.7109 9492 9483 9470 9460 9455 9458 9463 9466 9462 9451 9433 9416 9404
2372.9785 9400 9402 9407 9412 9413 9407 9398 9385 9374 9365 9360 9357 9355
2379.2461 9353 9350 9348 9347 9348 9351 9355 9359 9360 9359 9356 9351 9347
2385.5137 9342 9337 9333 9331 9330 9333 9336 9340 9343 9344 9344 9343 9342
2391.7810 9342 9340 9339 9338 9339 9343 9350 9359 9365 9367 9363 9357 9351
2398.0486 9346 9345 9346 9348 9349 9349 9350 9351 9353 9354 9355 9355 9355
2404.3162 9354 9354 9355 9358 9362 9366 9369 9371 9370 9368 9365 9362 9358
2410.5837 9353 9348 9343 9340 9340 9342 9346 9351 9356 9359 9362 9364 9365
2416.8511 9367 9369 9372 9375 9377 9376 9372 9366 9359 9353 9349 9348 9350
2423.1187 9352 9354 9355 9355 9353 9351 9349 9348 9348 9348 9346 9342 9337
2429.3862 9331 9326 9324 9326 9332 9339 9346 9348 9346 9340 9331 9322 9316
2435.6538 9314 9313 9313 9312 9309 9307 9304 9303 9301 9299 9295 9290 9285
2441.9211 9280 9276 9273 9272 9270 9269 9268 9270 9274 9280 9285 9288 9288
2448.1887 9284 9279 9276 9275 9275 9275 9274 9271 9265 9259 9252 9247 9243
2454.4563 9240 9239 9239 9241 9244 9248 9252 9255 9257 9256 9254 9251 9251
2460.7239 9254 9258 9260 9257 9248 9237 9227 9220 9217 9216 9217 9217 9218
2466.9912 9221 9224 9229 9232 9235 9236 9238 9239 9241 9243 9243 9241 9239
2473.2588 9235 9232 9228 9225 9223 9220 9218 9216 9214 9212 9211 9212 9214
2479.5264 9216 9218 9220 9221 9223 9225 9227 9229 9229 9226 9219 9212 9205
2485.7939 9200 9197 9196 9196 9197 9199 9201 9204 9208 9211 9213 9215 9215
2492.0613 9213 9210 9204 9198 9193 9189 9187 9185 9183 9181 9181 9181 9181
2498.3289 9180 9177 9172 9167 9163 9161 9161 9162 9163 9165 9166 9169 9171
2504.5964 9171 9167 9157 9145 9134 9127 9127 9133 9142 9151 9156 9158 9156
2510.8640 9151 9144 9134 9123 9113 9106 9104 9108 9114 9122 9126 9126 9120
2517.1313 9111 9102 9096 9094 9096 9101 9107 9111 9112 9111 9109 9107 9106
2523.3989 9107 9110 9113 9116 9118 9118 9117 9114 9112 9110 9110 9111 9113
2529.6665 9114 9116 9116 9117 9116 9114 9111 9108 9106 9105 9107 9109 9111
2535.9341 9113 9116 9119 9122 9125 9125 9121 9114 9104 9095 9087 9083 9081
2542.2014 9080 9082 9085 9091 9100 9109 9117 9122 9122 9118 9113 9108 9105
2548.4690 9104 9104 9107 9110 9114 9117 9118 9118 9117 9113 9109 9103 9097
2554.7366 9091 9088 9089 9094 9100 9105 9107 9103 9096 9087 9081 9081 9086
2561.0042 9096 9106 9113 9115 9111 9104 9096 9090 9086 9085 9085 9086 9086
2567.2715 9084 9081 9076 9073 9072 9075 9081 9086 9087 9083 9076 9070 9067
2573.5391 9068 9073 9078 9081 9081 9077 9073 9069 9066 9066 9067 9070 9073
2579.8066 9075 9075 9071 9065 9057 9052 9050 9053 9059 9065 9067 9065 9060
2586.0742 9053 9048 9047 9050 9056 9061 9064 9065 9063 9060 9058 9056 9056
2592.3418 9057 9056 9055 9053 9051 9049 9049 9050 9051 9052 9052 9052 9051
2598.6091 9050 9050 9050 9051 9052 9053 9053 9053 9051 9048 9043 9037 9031
2604.8767 9025 9022 9021 9020 9019 9016 9011 9006 9004 9004 9006 9009 9011
2611.1443 9011 9009 9009 9009 9010 9012 9012 9010 9006 9000 8996 8993 8992
2617.4119 8992 8994 8996 8999 9001 9003 9004 9003 9000 8997 8995 8994 8995
2623.6792 8999 9002 9006 9009 9011 9011 9011 9009 9007 9005 9005 9006 9010
2629.9468 9015 9021 9026 9029 9030 9029 9027 9025 9023 9022 9022 9023 9023
2636.2144 9024 9024 9024 9023 9023 9022 9021 9021 9020 9018 9016 9013 9010
2642.4819 9007 9004 9002 9000 8998 8995 8993 8991 8990 8989 8989 8989 8988
2648.7493 8986 8983 8979 8975 8973 8972 8972 8972 8972 8972 8972 8973 8974
2655.0168 8975 8974 8973 8971 8970 8970 8972 8974 8976 8977 8976 8975 8972
2661.2844 8970 8967 8965 8964 8965 8966 8968 8969 8969 8969 8968 8967 8966
2667.5520 8964 8962 8960 8957 8955 8952 8951 8949 8947 8944 8940 8936 8933
2673.8193 8932 8931 8931 8931 8931 8929 8928 8926 8925 8924 8922 8919 8914
2680.0869 8908 8901 8895 8891 8889 8887 8886 8885 8884 8883 8883 8884 8884
2686.3545 8883 8881 8877 8872 8867 8864 8862 8862 8862 8862 8862 8860 8856
2692.6221 8853 8849 8848 8848 8849 8852 8854 8855 8854 8852 8849 8845 8842
2698.8894 8840 8839 8838 8838 8837 8835 8833 8831 8828 8824 8819 8813 8808
2705.1570 8804 8803 8803 8803 8803 8801 8798 8794 8789 8786 8783 8781 8779
2711.4246 8777 8774 8770 8765 8761 8759 8759 8760 8762 8764 8764 8763 8762
2717.6921 8760 8757 8755 8753 8751 8749 8746 8743 8739 8736 8735 8735 8736
2723.9595 8738 8738 8737 8734 8730 8726 8724 8724 8725 8726 8727 8727 8726
2730.2271 8725 8724 8726 8728 8732 8734 8736 8735 8734 8732 8729 8726 8724
2736.4946 8721 8720 8719 8718 8718 8717 8716 8714 8714 8713 8713 8712 8710
2742.7622 8707 8704 8700 8697 8695 8693 8692 8689 8686 8681 8676 8672 8670
2749.0295 8669 8669 8670 8671 8670 8668 8664 8659 8653 8648 8644 8642 8641
2755.2971 8641 8641 8639 8637 8633 8628 8624 8620 8617 8616 8615 8615 8615
2761.5647 8614 8612 8610 8606 8603 8599 8597 8595 8594 8594 8593 8592 8592
2767.8323 8592 8592 8593 8593 8592 8590 8588 8586 8585 8585 8585 8583 8580
2774.0996 8576 8572 8568 8565 8564 8564 8564 8564 8562 8559 8554 8549 8543
2780.3672 8539 8537 8536 8536 8537 8538 8538 8540 8542 8544 8546 8547 8547
2786.6348 8546 8545 8547 8550 8554 8558 8562 8566 8572 8580 8590 8603 8616
2792.9023 8627 8636 8644 8651 8658 8665 8672 8676 8679 8681 8683 8686 8689
2799.1697 8695 8701 8707 8713 8720 8725 8731 8735 8739 8742 8744 8745 8745
2805.4373 8745 8744 8745 8747 8750 8754 8758 8760 8760 8759 8759 8759 8760
2811.7048 8761 8763 8764 8764 8764 8764 8765 8766 8767 8768 8767 8764 8760
2817.9724 8756 8754 8755 8757 8758 8758 8756 8753 8751 8750 8752 8755 8758
2824.2397 8760 8760 8759 8757 8756 8754 8753 8753 8753 8754 8756 8758 8759
2830.5073 8761 8764 8767 8769 8771 8770 8768 8764 8762 8763 8766 8771 8776
2836.7749 8779 8779 8778 8775 8773 8772 8772 8774 8775 8776 8776 8775 8775
2843.0425 8775 8777 8780 8784 8786 8786 8784 8782 8779 8775 8772 8769 8768
2849.3098 8768 8771 8775 8781 8785 8788 8788 8787 8784 8782 8781 8779 8777
2855.5774 8775 8772 8770 8767 8765 8765 8765 8766 8767 8769 8770 8770 8769
2861.8450 8767 8765 8763 8761 8758 8756 8753 8751 8750 8750 8751 8752 8753
2868.1125 8754 8752 8749 8743 8737 8730 8724 8720 8717 8716 8715 8715 8715
2874.3799 8714 8714 8712 8710 8707 8704 8701 8699 8696 8694 8692 8689 8687
2880.6475 8684 8681 8678 8677 8676 8677 8677 8678 8678 8677 8677 8676 8676
2886.9150 8675 8674 8673 8672 8673 8675 8678 8680 8681 8680 8677 8673 8670
2893.1826 8667 8666 8667 8669 8672 8673 8674 8673 8670 8668 8666 8665 8665
2899.4500 8666 8667 8667 8666 8664 8662 8661 8660 8661 8663 8664 8663 8661
2905.7175 8657 8654 8651 8649 8647 8646 8644 8642 8640 8638 8636 8635 8634
2911.9851 8634 8633 8630 8626 8620 8615 8610 8608 8607 8608 8609 8610 8612
2918.2527 8614 8615 8615 8616 8615 8614 8612 8609 8605 8600 8594 8589 8583
2924.5200 8578 8575 8574 8575 8576 8578 8578 8578 8577 8577 8576 8576 8574
2930.7876 8570 8565 8559 8554 8552 8552 8555 8557 8559 8558 8555 8550 8545
2937.0552 8541 8537 8534 8532 8529 8526 8523 8519 8517 8515 8515 8515 8515
2943.3228 8514 8512 8509 8505 8501 8498 8495 8492 8489 8486 8482 8478 8474
2949.5901 8470 8468 8467 8466 8467 8468 8469 8470 8470 8471 8471 8471 8470
2955.8577 8468 8465 8462 8459 8457 8455 8453 8450 8446 8442 8437 8432 8428
2962.1252 8423 8418 8414 8411 8410 8409 8409 8407 8404 8398 8391 8382 8374
2968.3928 8368 8364 8361 8359 8357 8354 8350 8345 8341 8338 8335 8332 8329
2974.6602 8324 8316 8308 8298 8290 8284 8280 8278 8277 8276 8275 8274 8273
2980.9277 8270 8267 8262 8257 8251 8246 8240 8235 8230 8226 8224 8224 8227
2987.1953 8229 8230 8228 8223 8216 8209 8203 8199 8198 8198 8199 8199 8197
2993.4629 8193 8189 8184 8179 8177 8176 8176 8175 8173 8168 8161 8152 8143
2999.7302 8137 8133 8131 8130 8129 8124 8117 8108 8099 8092 8088 8087 8087
3005.9978 8087 8087 8084 8079 8073 8067 8062 8059 8057 8056 8053 8048 8041
3012.2654 8034 8026 8021 8018 8018 8020 8021 8022 8022 8019 8015 8011 8007
3018.5330 8006 8006 8006 8004 8000 7993 7987 7983 7982 7984 7986 7988 7989
3024.8003 7987 7985 7981 7978 7976 7974 7974 7973 7972 7970 7967 7964 7961
3031.0679 7958 7956 7954 7952 7950 7947 7945 7945 7947 7950 7954 7957 7956
3037.3354 7953 7950 7947 7946 7947 7948 7946 7942 7935 7929 7925 7922 7920
3043.6030 7917 7912 7905 7898 7892 7888 7886 7884 7882 7877 7870 7863 7855
3049.8704 7848 7843 7839 7835 7832 7829 7825 7821 7816 7810 7804 7797 7789
3056.1379 7781 7773 7767 7762 7757 7752 7748 7746 7746 7749 7755 7763 7771
3062.4055 7779 7787 7795 7803 7811 7818 7821 7823 7823 7824 7826 7831 7837
3068.6731 7846 7854 7862 7870 7875 7879 7882 7882 7880 7877 7873 7869 7865
3074.9404 7862 7860 7857 7852 7846 7839 7830 7822 7814 7806 7798 7788 7778
3081.2080 7769 7761 7758 7757 7759 7760 7759 7754 7746 7738 7729 7720 7712
3087.4756 7705 7699 7695 7695 7695 7694 7691 7684 7674 7663 7654 7647 7641
3093.7432 7635 7628 7622 7616 7610 7606 7602 7598 7593 7590 7588 7588 7591
3100.0105 7594 7596 7595 7591 7583 7573 7563 7554 7547 7541 7535 7528 7519
3106.2781 7510 7502 7496 7492 7490 7488 7486 7484 7479 7473 7466 7457 7448
3112.5457 7440 7433 7428 7424 7420 7414 7406 7398 7390 7384 7378 7373 7369
3118.8132 7364 7360 7357 7354 7350 7346 7342 7337 7331 7325 7318 7310 7303
3125.0806 7296 7289 7284 7280 7277 7275 7272 7269 7266 7263 7259 7255 7251
3131.3481 7246 7242 7238 7235 7232 7228 7224 7219 7212 7205 7199 7195 7194
3137.6157 7194 7193 7191 7186 7180 7175 7172 7171 7172 7173 7176 7178 7179
3143.8833 7180 7180 7180 7180 7181 7182 7184 7185 7186 7184 7181 7179 7178
3150.1506 7179 7183 7189 7197 7204 7212 7219 7227 7234 7241 7248 7255 7262
3156.4182 7270 7279 7286 7292 7296 7298 7300 7302 7306 7312 7320 7329 7339
3162.6858 7348 7357 7365 7374 7383 7392 7402 7412 7422 7430 7437 7443 7446
3168.9534 7448 7450 7453 7459 7466 7474 7484 7494 7504 7514 7525 7535 7546
3175.2207 7556 7567 7580 7594 7608 7621 7634 7645 7656 7665 7673 7680 7685
3181.4883 7690 7697 7705 7715 7725 7734 7741 7749 7758 7768 7780 7794 7807
3187.7559 7822 7836 7849 7861 7868 7872 7874 7877 7884 7894 7908 7922 7934
3194.0234 7944 7951 7957 7964 7973 7983 7994 8005 8015 8025 8033 8039 8042
3200.2908 8045 8047 8050 8053 8059 8065 8072 8080 8087 8093 8098 8102 8105
3206.5583 8109 8114 8122 8131 8141 8150 8156 8159 8162 8164 8168 8175 8182
3212.8259 8189 8193 8193 8190 8187 8187 8191 8200 8213 8227 8238 8245 8246
3219.0935 8244 8240 8238 8241 8247 8257 8268 8278 8286 8291 8294 8294 8293
3225.3608 8291 8287 8284 8282 8284 8289 8298 8309 8320 8329 8335 8339 8339
3231.6284 8337 8334 8331 8330 8330 8333 8337 8341 8345 8349 8353 8357 8360
3237.8960 8363 8367 8371 8376 8379 8379 8375 8368 8360 8353 8350 8351 8353
3244.1636 8356 8356 8353 8347 8341 8338 8338 8343 8351 8359 8366 8369 8368
3250.4309 8365 8359 8353 8347 8342 8338 8334 8331 8332 8336 8343 8351 8356
3256.6985 8357 8350 8339 8326 8316 8310 8308 8309 8310 8309 8306 8303 8301
3262.9661 8301 8303 8306 8308 8309 8310 8309 8308 8305 8299 8292 8284 8276
3269.2336 8272 8270 8269 8269 8267 8262 8256 8249 8242 8237 8232 8228 8223
3275.5010 8218 8214 8211 8209 8209 8209 8209 8207 8204 8198 8193 8188 8184
3281.7686 8183 8184 8187 8190 8191 8189 8184 8177 8171 8166 8164 8164 8164
3288.0361 8163 8160 8155 8150 8147 8147 8150 8156 8162 8166 8168 8168 8167
3294.3037 8167 8168 8170 8173 8173 8172 8169 8165 8161 8158 8154 8152 8149
3300.5710 8148 8147 8146 8144 8142 8140 8138 8138 8139 8142 8146 8149 8152
3306.8386 8154 8153 8151 8147 8142 8135 8128 8121 8117 8115 8117 8119 8121
3313.1062 8120 8117 8114 8112 8114 8118 8124 8128 8128 8124 8116 8108 8101
3319.3738 8099 8099 8101 8101 8098 8091 8082 8075 8071 8070 8072 8073 8070
3325.6411 8065 8057 8048 8042 8039 8037 8036 8034 8030 8023 8016 8008 7999
3331.9087 7990 7981 7971 7961 7950 7939 7927 7913 7899 7884 7869 7854 7839
3338.1763 7825 7810 7795 7779 7765 7752 7739 7727 7714 7698 7681 7664 7649
3344.4438 7637 7627 7620 7611 7601 7588 7573 7557 7544 7533 7526 7522 7521
3350.7112 7523 7526 7531 7537 7545 7554 7563 7571 7578 7585 7592 7600 7610
3356.9788 7622 7636 7652 7672 7695 7722 7752 7782 7810 7836 7860 7883 7909
3363.2463 7935 7962 7987 8007 8024 8037 8048 8057 8064 8069 8071 8074 8080
3369.5139 8090 8104 8121 8138 8154 8170 8188 8209 8235 8264 8297 8332 8372
3375.7813 8414 8459 8503 8545 8585 8621 8655 8689 8723 8759 8796 8834 8873
3382.0488 8914 8955 8996 9037 9077 9116 9152 9185 9216 9244 9272 9300 9330
3388.3164 9360 9391 9421 9450 9478 9502 9525 9545 9564 9582 9601 9618 9633
3394.5840 9646 9658 9670 9684 9701 9719 9735 9749 9758 9765 9769 9772 9774
3400.8513 9777 9781 9786 9793 9801 9810 9820 9831 9843 9853 9861 9867 9870
3407.1189 9872 9877 9883 9891 9898 9902 9904 9903 9901 9899 9896 9895 9894
3413.3865 9894 9896 9899 9901 9902 9900 9897 9893 9889 9885 9879 9873 9864
3419.6541 9855 9847 9841 9839 9838 9838 9837 9833 9828 9821 9813 9805 9799
3425.9214 9794 9793 9795 9799 9804 9809 9813 9816 9818 9820 9822 9825 9829
3432.1890 9834 9840 9846 9852 9858 9861 9863 9863 9863 9865 9872 9883 9898
3438.4565 9917 9938 9957 9975 9992 10007 10022 10037 10054 10071 10088 10103
3444.2419 10114 10120 10121 10119 10113 10105 10094 10082 10070 10057 10046
3449.5452 10035 10026 10018 10011 10006 10002 10000 9998 9996 9990 9979 9961
3455.3306 9938 9911 9883 9856 9832 9809 9787 9767 9747 9730 9715 9703 9695
3461.5981 9689 9684 9679 9675 9670 9666 9661 9655 9648 9640 9632 9627 9625
3467.8657 9625 9629 9633 9638 9643 9647 9650 9651 9649 9645 9637 9629 9620
3474.1331 9612 9608 9606 9607 9609 9613 9615 9616 9615 9613 9609 9606 9603
3480.4006 9600 9597 9594 9590 9586 9583 9581 9582 9583 9586 9589 9590 9591
3486.6682 9591 9590 9590 9590 9590 9589 9588 9586 9585 9583 9581 9578 9575
3492.9358 9571 9567 9564 9561 9557 9552 9546 9543 9543 9546 9551 9555 9555
3499.2031 9551 9544 9538 9535 9535 9539 9543 9546 9548 9547 9545 9542 9540
3505.4707 9538 9539 9543 9547 9550 9548 9540 9528 9517 9511 9513 9520 9526
3511.7383 9529 9528 9525 9522 9521 9521 9521 9520 9518 9516 9517 9519 9521
3518.0059 9521 9519 9517 9520 9527 9535 9541 9539 9528 9509 9489 9474 9466
3524.2732 9465 9468 9472 9477 9483 9490 9499 9509 9519 9525 9528 9527 9522
3530.5408 9513 9503 9493 9484 9478 9475 9476 9479 9484 9487 9487 9485 9481
3536.8083 9477 9475 9474 9472 9468 9461 9454 9449 9448 9452 9460 9469 9475
3543.0759 9478 9477 9473 9468 9462 9458 9455 9456 9458 9460 9462 9462 9459
3549.3433 9456 9452 9450 9448 9448 9448 9447 9444 9441 9437 9435 9434 9435
3555.6108 9437 9442 9448 9455 9462 9465 9465 9461 9454 9447 9443 9442 9443
3561.8784 9443 9441 9436 9429 9424 9422 9424 9429 9435 9436 9428 9411 9393
3568.1460 9381 9379 9384 9393 9401 9407 9410 9411 9412 9413 9412 9409 9403
3574.4136 9395 9387 9382 9379 9379 9380 9384 9388 9391 9393 9392 9390 9389
3580.6809 9392 9398 9405 9411 9414 9414 9415 9418 9424 9432 9439 9441 9434
3586.9485 9417 9396 9377 9364 9358 9358 9361 9367 9375 9383 9392 9400 9406
3593.2161 9411 9412 9408 9401 9390 9378 9368 9361 9358 9361 9368 9377 9387
3599.4836 9394 9395 9391 9385 9380 9377 9377 9376 9375 9374 9372 9373 9375
3605.7510 9379 9382 9383 9379 9369 9358 9347 9342 9342 9345 9349 9350 9350
3612.0186 9348 9349 9352 9358 9363 9365 9366 9366 9368 9372 9377 9380 9377
3618.2861 9367 9352 9336 9325 9321 9324 9332 9341 9349 9351 9348 9339 9328
3624.5537 9317 9310 9309 9316 9329 9346 9365 9376 9368 9340 9314 9305 9309
3630.8210 9319 9328 9334 9336 9332 9324 9315 9309 9308 9311 9317 9323 9327
3637.0886 9328 9327 9326 9325 9327 9328 9329 9326 9320 9312 9303 9298 9298
3643.3562 9304 9314 9325 9336 9342 9343 9335 9321 9309 9305 9312 9322 9325
3649.6238 9313 9288 9263 9250 9248 9253 9261 9273 9285 9298 9310 9315 9309
3655.8911 9293 9276 9266 9265 9270 9274 9275 9273 9269 9266 9266 9271 9278
3662.1587 9284 9287 9284 9277 9268 9260 9256 9258 9264 9273 9284 9297 9312
3668.4263 9330 9344 9345 9325 9290 9262 9248 9248 9256 9267 9277 9282 9277
3674.6938 9254 9222 9209 9221 9242 9264 9283 9296 9300 9295 9284 9275 9270
3680.9612 9271 9274 9278 9281 9279 9274 9266 9258 9254 9256 9264 9277 9290
3687.2288 9300 9302 9298 9293 9291 9289 9283 9272 9259 9250 9250 9254 9261
3693.4963 9267 9269 9268 9264 9259 9254 9251 9250 9251 9253 9256 9260 9267
3699.7639 9276 9286 9293 9293 9286 9276 9271 9271 9274 9275 9270 9261 9250
3706.0313 9243 9244 9251 9259 9264 9261 9252 9243 9243 9250 9257 9256 9245
3712.2988 9231 9225 9227 9233 9238 9241 9239 9237 9237 9239 9243 9248 9251
3718.5664 9253 9254 9255 9255 9254 9249 9237 9222 9210 9206 9210 9220 9230
3724.8340 9237 9238 9234 9229 9227 9231 9241 9255 9268 9280 9289 9294 9294
3731.1013 9290 9287 9288 9294 9301 9303 9294 9270 9236 9207 9196 9198 9204
3737.3689 9209 9212 9216 9221 9229 9237 9244 9252 9262 9275 9292 9310 9323
3743.6365 9315 9269 9211 9185 9192 9214 9240 9267 9291 9308 9312 9300 9277
3749.9041 9253 9233 9216 9202 9195 9197 9207 9219 9229 9235 9236 9235 9235
3756.1714 9240 9250 9262 9272 9275 9268 9252 9234 9224 9223 9227 9232 9236
3762.4390 9239 9243 9247 9251 9252 9248 9240 9231 9228 9231 9239 9249 9256
3768.7065 9256 9247 9231 9219 9215 9218 9224 9229 9231 9230 9228 9227 9229
3774.9741 9233 9240 9246 9251 9251 9248 9240 9230 9220 9214 9213 9216 9221
3781.2415 9224 9227 9228 9229 9230 9231 9233 9234 9233 9232 9231 9233 9237
3787.5090 9243 9249 9252 9253 9251 9247 9245 9242 9240 9238 9236 9236 9240
3793.7766 9245 9252 9257 9258 9254 9246 9239 9238 9244 9256 9271 9286 9297
3800.0442 9300 9288 9259 9230 9217 9218 9225 9232 9239 9246 9253 9258 9259
3806.3115 9248 9230 9214 9207 9209 9215 9222 9229 9233 9235 9234 9232 9232
3812.5791 9234 9241 9252 9265 9276 9278 9264 9239 9218 9212 9217 9230 9245
3818.8467 9262 9276 9282 9270 9241 9212 9199 9199 9204 9211 9215 9219 9221
3825.1143 9221 9220 9217 9214 9211 9213 9219 9229 9242 9254 9262 9264 9256
3831.3816 9245 9238 9237 9242 9248 9251 9250 9247 9246 9247 9247 9239 9219
3837.6492 9193 9174 9170 9181 9197 9215 9230 9242 9252 9259 9261 9255 9244
3843.9167 9231 9221 9217 9216 9218 9219 9220 9222 9225 9229 9235 9240 9246
3850.1843 9252 9259 9267 9278 9289 9289 9264 9224 9196 9189 9196 9210 9224
3856.4517 9235 9240 9238 9234 9232 9232 9234 9236 9235 9230 9223 9220 9223
3862.7192 9233 9245 9251 9244 9226 9206 9196 9200 9212 9227 9244 9258 9267
3868.9868 9264 9247 9227 9217 9219 9228 9239 9247 9249 9240 9222 9203 9192
3875.2544 9189 9193 9200 9209 9220 9231 9242 9249 9250 9242 9226 9211 9205
3881.5217 9206 9212 9220 9227 9233 9237 9236 9230 9217 9203 9196 9198 9207
3887.7893 9220 9234 9249 9260 9265 9262 9250 9233 9218 9210 9208 9209 9212
3894.0569 9215 9218 9222 9228 9234 9240 9244 9242 9234 9220 9209 9205 9210
3900.3245 9218 9226 9232 9235 9238 9241 9243 9238 9227 9212 9200 9195 9196
3906.5918 9200 9205 9209 9213 9217 9223 9228 9233 9235 9234 9231 9227 9222
3912.8594 9216 9212 9210 9211 9213 9215 9218 9218 9217 9217 9216 9216 9213
3919.1270 9210 9207 9206 9211 9221 9233 9243 9250 9249 9241 9226 9209 9198
3925.3945 9195 9200 9209 9219 9226 9227 9223 9214 9206 9200 9198 9198 9201
3931.6619 9204 9208 9211 9213 9216 9217 9217 9216 9214 9212 9210 9207 9205
3937.9294 9204 9202 9202 9202 9204 9207 9210 9213 9214 9212 9209 9206 9207
3944.1970 9210 9214 9218 9219 9216 9210 9206 9206 9209 9215 9219 9220 9217
3950.4646 9213 9209 9206 9205 9204 9202 9199 9196 9194 9193 9194 9196 9199
3956.7319 9204 9209 9214 9220 9224 9226 9226 9223 9216 9208 9201 9198 9198
3962.9995 9203 9209 9216 9220 9222 9220 9216 9209 9202 9196 9192 9194 9199
3969.2671 9207 9213 9214 9211 9204 9196 9189 9187 9188 9191 9193 9195 9196
3975.5347 9199 9202 9208 9214 9219 9221 9221 9218 9214 9210 9206 9205 9205
3981.8020 9206 9208 9209 9208 9204 9197 9189 9181 9177 9176 9180 9187 9196
3988.0696 9205 9213 9219 9222 9222 9221 9219 9215 9212 9208 9205 9202 9200
3994.3372 9198 9195 9192 9190 9189 9190 9193 9195 9197 9199 9201 9204 9207
##END= 
