##TITLE= STDSUCRALOSIO
##JCAMP-DX= 4.24
##DATA TYPE= INFRARED SPECTRUM
##ORIGIN= JASCO
##OWNER= 
##DATE= 22/05/10
##TIME= 14:49:20
##SPECTROMETER/DATA SYSTEM= 
##RESOLUTION= 
##DELTAX=   0.48211674
##XUNITS= 1/CM
##YUNITS= TRANSMITTANCE
##XFACTOR= 1.00000
##YFACTOR= 0.0001
##FIRSTX=   599.7532
##LASTX=  4000.1226
##NPOINTS=     7054
##FIRSTY=      0.69853
##MAXY=      1.07490
##MINY=      0.33237
##XYDATA= (X++(Y..Y))
599.7532 6985 6951 6919 6888 6848 6792 6720 6637 6557 6495 6460 6454 6474 6515
606.5029 6572 6638 6703 6751 6766 6734 6653 6535 6396 6253 6114 5977 5837 5692
613.2525 5550 5425 5331 5279 5270 5299 5354 5423 5490 5543 5570 5569 5540 5494
620.0021 5440 5390 5353 5337 5351 5399 5486 5614 5779 5975 6189 6406 6607 6779
626.7518 6914 7009 7071 7111 7138 7163 7189 7213 7230 7237 7230 7211 7184 7156
633.5014 7131 7109 7092 7078 7068 7063 7068 7081 7102 7125 7140 7142 7127 7098
640.2510 7064 7035 7017 7014 7023 7039 7056 7072 7084 7092 7091 7084 7071 7057
647.0007 7047 7042 7036 7021 6991 6946 6896 6855 6832 6832 6845 6856 6850 6817
653.7503 6760 6691 6623 6564 6512 6459 6392 6303 6191 6062 5923 5780 5638 5497
660.4999 5356 5221 5101 5009 4961 4969 5036 5154 5301 5451 5581 5684 5758 5810
667.2496 5848 5887 5941 5994 6022 6028 6023 6017 6020 6047 6112 6226 6391 6599
673.9992 6835 7082 7322 7538 7719 7860 7965 8043 8105 8160 8216 8273 8330 8379
680.7488 8412 8425 8418 8398 8378 8366 8369 8386 8409 8432 8453 8470 8488 8509
687.4985 8535 8560 8579 8584 8573 8548 8519 8495 8483 8484 8492 8501 8505 8509
694.2481 8520 8545 8583 8627 8663 8683 8685 8674 8659 8645 8634 8621 8603 8580
700.9977 8556 8533 8515 8500 8484 8463 8436 8400 8354 8298 8228 8144 8048 7943
707.7474 7838 7740 7657 7588 7531 7482 7436 7394 7360 7338 7330 7338 7356 7380
714.4970 7402 7416 7422 7423 7427 7439 7463 7493 7520 7536 7541 7544 7557 7587
721.2466 7633 7680 7715 7729 7724 7706 7690 7685 7693 7710 7727 7736 7734 7724
727.9963 7714 7712 7721 7742 7769 7795 7814 7821 7816 7798 7773 7742 7706 7666
734.7459 7620 7570 7516 7463 7414 7373 7337 7304 7268 7225 7170 7100 7017 6923
741.4955 6826 6735 6656 6590 6535 6483 6424 6355 6274 6185 6097 6020 5971 5962
748.2452 6006 6109 6270 6480 6727 6994 7269 7535 7778 7988 8161 8296 8401 8481
754.9948 8541 8585 8615 8635 8647 8651 8644 8623 8587 8539 8487 8441 8406 8377
761.7444 8345 8294 8216 8111 7990 7868 7755 7652 7552 7446 7330 7206 7081 6962
768.4941 6849 6739 6622 6488 6329 6144 5940 5732 5542 5388 5283 5236 5251 5330
775.2437 5477 5694 5976 6307 6663 7020 7356 7660 7932 8172 8385 8568 8722 8844
781.9933 8940 9017 9083 9146 9208 9264 9310 9341 9358 9365 9367 9369 9370 9370
788.7430 9367 9362 9358 9356 9356 9354 9349 9338 9324 9309 9296 9291 9293 9302
795.4926 9315 9326 9331 9328 9318 9302 9286 9273 9263 9254 9244 9231 9214 9196
802.2422 9180 9167 9158 9152 9147 9139 9130 9120 9113 9107 9104 9099 9091 9076
808.9919 9055 9028 8999 8972 8951 8939 8933 8932 8930 8923 8907 8885 8858 8831
815.7415 8807 8787 8768 8747 8720 8685 8643 8598 8553 8512 8477 8450 8426 8402
822.4911 8370 8325 8264 8189 8103 8012 7921 7832 7747 7669 7604 7562 7553 7583
829.2408 7654 7757 7878 8002 8113 8204 8270 8313 8335 8341 8335 8321 8302 8278
835.9904 8249 8214 8168 8108 8033 7943 7844 7745 7654 7578 7521 7483 7466 7466
842.7401 7484 7513 7549 7583 7610 7628 7638 7642 7643 7637 7621 7589 7541 7479
849.4897 7406 7326 7238 7143 7039 6924 6798 6662 6513 6353 6182 6006 5837 5687
856.2393 5569 5496 5479 5523 5631 5799 6016 6265 6529 6789 7033 7255 7451 7620
862.9890 7765 7887 7986 8065 8126 8170 8202 8221 8232 8235 8233 8228 8220 8209
869.7386 8194 8175 8151 8125 8096 8066 8033 7996 7955 7910 7863 7816 7770 7727
876.4882 7683 7637 7585 7525 7458 7384 7305 7222 7137 7050 6961 6868 6767 6659
883.2379 6541 6417 6290 6163 6038 5915 5791 5663 5532 5403 5283 5182 5108 5070
889.9875 5072 5118 5212 5358 5554 5795 6072 6370 6677 6979 7268 7536 7780 7994
896.7371 8177 8328 8452 8550 8630 8693 8743 8782 8814 8840 8862 8880 8892 8897
903.4868 8895 8889 8880 8870 8858 8846 8832 8817 8804 8794 8785 8776 8764 8748
910.2364 8729 8708 8687 8667 8648 8631 8615 8601 8589 8578 8567 8554 8537 8516
916.9860 8489 8458 8423 8389 8358 8332 8312 8296 8278 8255 8224 8185 8144 8103
923.7357 8066 8032 8000 7968 7935 7903 7875 7855 7845 7844 7852 7864 7877 7889
930.4853 7901 7911 7921 7930 7940 7950 7959 7965 7965 7960 7949 7935 7919 7902
937.2349 7882 7858 7831 7800 7770 7741 7716 7692 7667 7639 7608 7576 7543 7514
943.9846 7487 7463 7437 7410 7379 7345 7308 7270 7231 7192 7154 7116 7077 7038
950.7342 6996 6952 6907 6861 6815 6769 6722 6674 6624 6572 6519 6467 6415 6362
957.4838 6306 6247 6185 6122 6057 5992 5925 5856 5783 5707 5630 5551 5473 5397
964.2335 5322 5249 5181 5118 5064 5019 4987 4971 4977 5011 5075 5171 5295 5439
970.9831 5596 5761 5927 6090 6248 6393 6522 6630 6715 6776 6815 6836 6839 6826
977.7327 6798 6757 6705 6645 6582 6516 6447 6374 6294 6206 6110 6007 5899 5786
984.4824 5672 5556 5441 5329 5225 5133 5055 4996 4959 4944 4949 4970 5000 5030
991.2320 5053 5063 5057 5034 4998 4950 4895 4835 4772 4705 4634 4560 4483 4407
997.9816 4335 4271 4217 4175 4148 4139 4151 4185 4242 4319 4413 4523 4645 4778
1004.7313 4919 5063 5207 5343 5468 5576 5665 5735 5784 5815 5829 5828 5812
1010.9988 5783 5740 5683 5611 5526 5431 5331 5229 5129 5035 4951 4879 4824
1017.2663 4791 4785 4811 4868 4952 5056 5171 5287 5395 5487 5557 5598 5603
1023.5338 5568 5490 5372 5220 5044 4855 4664 4482 4322 4192 4103 4057 4056
1029.8014 4094 4163 4254 4357 4467 4579 4693 4809 4928 5050 5173 5294 5408
1036.0688 5510 5592 5648 5669 5650 5590 5490 5358 5205 5043 4887 4749 4642
1042.3364 4575 4556 4589 4674 4806 4978 5180 5403 5636 5870 6094 6299 6478
1048.6039 6624 6735 6810 6850 6858 6838 6799 6749 6699 6660 6641 6649 6688
1054.8715 6756 6854 6977 7121 7279 7444 7609 7765 7907 8029 8130 8211 8275
1061.1389 8324 8363 8392 8413 8427 8433 8432 8422 8402 8373 8335 8290 8240
1067.4065 8185 8127 8067 8004 7938 7866 7789 7706 7617 7523 7424 7322 7216
1073.6740 7104 6984 6854 6713 6563 6406 6244 6081 5920 5761 5606 5459 5321
1079.9415 5195 5083 4985 4899 4823 4758 4702 4652 4607 4560 4510 4451 4382
1086.2090 4300 4204 4093 3970 3839 3708 3586 3482 3402 3349 3324 3327 3359
1092.4766 3419 3508 3622 3755 3901 4053 4202 4344 4474 4590 4693 4785 4871
1098.7440 4954 5040 5133 5236 5352 5483 5630 5793 5971 6163 6364 6573 6786
1105.0116 7001 7217 7431 7642 7846 8038 8214 8369 8501 8611 8698 8765 8812
1111.2791 8842 8854 8849 8827 8789 8733 8661 8572 8466 8348 8222 8096 7977
1117.5466 7875 7798 7751 7733 7742 7768 7802 7835 7860 7875 7884 7890 7899
1123.8141 7918 7950 7996 8055 8121 8188 8250 8300 8335 8352 8348 8322 8276
1130.0817 8211 8135 8052 7970 7893 7825 7768 7719 7676 7639 7605 7574 7546
1136.3491 7523 7507 7499 7500 7511 7532 7564 7605 7656 7712 7770 7824 7869
1142.6167 7900 7917 7922 7920 7922 7938 7976 8040 8133 8250 8384 8526 8669
1148.8842 8804 8927 9035 9127 9205 9272 9331 9383 9427 9462 9486 9498 9498
1155.1517 9489 9474 9453 9426 9393 9350 9298 9236 9164 9083 8993 8895 8794
1161.4192 8692 8597 8514 8451 8412 8403 8427 8484 8569 8678 8802 8933 9064
1167.6868 9191 9308 9415 9511 9595 9667 9728 9778 9819 9852 9880 9903 9925
1173.9542 9945 9963 9980 9997 10013 10028 10042 10054 10061 10064 10062 10057
1179.7396 10051 10045 10039 10032 10024 10013 9999 9981 9958 9929 9892 9848
1185.5250 9797 9740 9682 9627 9583 9555 9548 9564 9601 9654 9720 9791 9861
1191.7926 9927 9984 10033 10074 10109 10141 10169 10194 10214 10232 10247
1197.0958 10263 10280 10299 10319 10337 10354 10369 10381 10391 10395 10392
1202.3992 10380 10360 10333 10303 10272 10243 10213 10185 10156 10128 10102
1207.7024 10080 10062 10048 10038 10031 10025 10019 10011 10002 9993 9984 9975
1213.4878 9966 9958 9948 9939 9928 9915 9902 9886 9868 9848 9826 9801 9773
1219.7554 9743 9708 9668 9621 9565 9500 9424 9340 9251 9162 9079 9008 8956
1226.0228 8925 8919 8935 8971 9021 9081 9147 9213 9277 9337 9389 9431 9461
1232.2904 9480 9486 9482 9468 9445 9414 9376 9332 9280 9221 9153 9077 8994
1238.5579 8904 8809 8714 8619 8530 8450 8382 8330 8296 8281 8287 8311 8351
1244.8254 8404 8464 8529 8594 8657 8716 8769 8815 8854 8883 8903 8911 8910
1251.0929 8901 8887 8874 8867 8868 8881 8904 8938 8980 9027 9074 9118 9155
1257.3605 9181 9197 9203 9202 9197 9191 9185 9182 9181 9183 9185 9188 9188
1263.6279 9183 9172 9154 9131 9104 9080 9061 9052 9057 9075 9106 9146 9191
1269.8955 9236 9277 9309 9330 9337 9330 9310 9278 9238 9193 9149 9109 9078
1276.1630 9058 9052 9059 9079 9112 9155 9203 9253 9298 9336 9363 9378 9379
1282.4305 9367 9342 9305 9257 9200 9134 9061 8983 8902 8818 8736 8658 8589
1288.6980 8532 8489 8456 8432 8412 8393 8371 8344 8313 8278 8240 8203 8167
1294.9656 8133 8097 8058 8013 7960 7898 7829 7753 7672 7587 7502 7421 7351
1301.2330 7297 7266 7261 7284 7335 7412 7513 7634 7771 7917 8068 8217 8362
1307.5006 8499 8626 8742 8844 8933 9007 9066 9112 9146 9171 9186 9194 9194
1313.7681 9186 9171 9147 9116 9078 9037 8994 8952 8915 8883 8861 8852 8858
1320.0356 8880 8918 8968 9030 9101 9178 9260 9343 9424 9500 9571 9635 9693
1326.3031 9746 9793 9836 9874 9906 9934 9958 9979 9997 10015 10030 10044 10056
1332.5707 10064 10070 10073 10075 10076 10077 10078 10077 10074 10069 10062
1337.8739 10051 10035 10009 9972 9922 9865 9802 9735 9663 9581 9487 9379 9261
1344.1415 9133 8998 8856 8707 8554 8402 8260 8138 8047 7996 7991 8029 8102
1350.4089 8196 8294 8381 8446 8483 8491 8473 8441 8405 8380 8375 8396 8443
1356.6765 8512 8595 8684 8771 8847 8907 8950 8975 8986 8983 8968 8941 8907
1362.9440 8872 8846 8838 8848 8874 8912 8957 9002 9042 9071 9083 9075 9048
1369.2115 9001 8938 8865 8787 8710 8642 8591 8562 8565 8608 8696 8818 8957
1375.4790 9094 9220 9335 9438 9529 9607 9668 9712 9738 9749 9746 9734 9715
1381.7466 9696 9680 9674 9682 9705 9742 9790 9843 9900 9959 10020 10083 10141
1388.0140 10191 10230 10261 10286 10305 10318 10325 10327 10326 10323 10318
1393.3174 10307 10288 10263 10238 10223 10224 10236 10254 10274 10292 10308
1398.6206 10319 10327 10333 10338 10342 10346 10347 10347 10345 10342 10336
1403.9240 10326 10310 10290 10269 10250 10234 10219 10202 10183 10163 10142
1409.2272 10122 10104 10085 10064 10039 10013 9985 9959 9935 9914 9894 9876
1415.0126 9858 9839 9820 9802 9786 9771 9752 9719 9665 9599 9542 9506 9487
1421.2802 9477 9471 9466 9458 9445 9421 9384 9332 9267 9191 9110 9033 8972
1427.5476 8937 8936 8968 9029 9108 9187 9251 9294 9320 9334 9342 9345 9345
1433.8152 9344 9342 9341 9341 9340 9341 9342 9345 9349 9352 9354 9356 9357
1440.0826 9359 9361 9364 9368 9372 9376 9380 9384 9388 9392 9396 9400 9402
1446.3502 9402 9400 9396 9390 9385 9381 9378 9374 9368 9359 9346 9330 9311
1452.6177 9294 9279 9266 9256 9246 9236 9225 9209 9190 9171 9158 9157 9162
1458.8853 9172 9183 9194 9206 9217 9228 9238 9249 9259 9269 9280 9295 9315
1465.1527 9338 9362 9384 9405 9426 9448 9471 9494 9516 9536 9553 9567 9577
1471.4203 9580 9569 9541 9505 9476 9457 9440 9420 9388 9344 9292 9247 9218
1477.6877 9205 9204 9209 9220 9236 9260 9293 9335 9381 9430 9478 9527 9576
1483.9553 9624 9670 9711 9746 9777 9803 9826 9846 9862 9874 9882 9886 9887
1490.2228 9889 9894 9904 9916 9929 9942 9954 9965 9975 9983 9989 9994 9998
1496.4904 10003 10008 10014 10021 10028 10034 10040 10044 10048 10052 10056
1501.7936 10061 10068 10075 10085 10095 10105 10116 10125 10129 10122 10103
1507.0969 10088 10082 10082 10085 10090 10097 10105 10112 10117 10121 10125
1512.4001 10128 10131 10137 10144 10153 10164 10173 10180 10181 10173 10165
1517.7035 10163 10166 10173 10181 10187 10190 10186 10176 10169 10172 10181
1523.0067 10191 10201 10208 10214 10216 10217 10218 10220 10223 10226 10230
1528.3101 10233 10236 10241 10247 10254 10263 10272 10279 10284 10282 10272
1533.6133 10258 10247 10245 10250 10259 10270 10283 10297 10311 10324 10335
1538.9166 10338 10327 10309 10297 10292 10290 10291 10295 10302 10312 10322
1544.2198 10329 10331 10331 10329 10330 10333 10338 10345 10351 10355 10357
1549.5232 10354 10349 10346 10346 10351 10358 10367 10374 10379 10381 10382
1554.8264 10386 10393 10403 10414 10425 10433 10434 10415 10372 10350 10368
1560.1298 10393 10413 10429 10443 10454 10465 10473 10480 10483 10483 10482
1565.4330 10482 10486 10493 10504 10516 10528 10537 10538 10533 10528 10532
1570.7363 10544 10560 10577 10592 10607 10619 10631 10642 10650 10652 10638
1576.0396 10604 10565 10538 10525 10517 10511 10505 10500 10496 10493 10493
1581.3429 10494 10496 10500 10507 10516 10526 10537 10548 10558 10567 10577
1586.6461 10588 10601 10614 10629 10644 10660 10676 10692 10708 10722 10735
1591.9495 10744 10749 10747 10738 10721 10699 10675 10652 10632 10616 10603
1597.2528 10592 10584 10578 10572 10567 10563 10560 10559 10561 10563 10566
1602.5560 10567 10567 10568 10571 10576 10582 10588 10592 10593 10593 10594
1607.8594 10595 10597 10599 10601 10602 10605 10609 10613 10616 10617 10617
1613.1626 10616 10619 10624 10632 10639 10639 10625 10595 10567 10555 10555
1618.4659 10559 10560 10557 10550 10542 10534 10529 10524 10514 10496 10470
1623.7692 10446 10434 10431 10432 10434 10433 10426 10413 10394 10376 10364
1629.0725 10358 10354 10352 10348 10343 10337 10333 10333 10336 10342 10348
1634.3757 10351 10344 10323 10300 10287 10286 10290 10295 10300 10303 10305
1639.6791 10306 10308 10310 10313 10316 10321 10327 10334 10344 10355 10366
1644.9823 10375 10380 10377 10366 10350 10339 10336 10341 10352 10366 10383
1650.2856 10402 10423 10447 10474 10499 10499 10443 10394 10390 10403 10419
1655.5889 10435 10449 10461 10472 10481 10491 10500 10509 10518 10528 10538
1660.8922 10548 10556 10560 10559 10556 10555 10559 10567 10577 10586 10595
1666.1954 10603 10611 10621 10631 10639 10641 10634 10624 10616 10611 10609
1671.4988 10609 10613 10622 10634 10648 10660 10660 10643 10611 10583 10570
1676.8020 10569 10573 10577 10578 10572 10560 10542 10524 10510 10504 10505
1682.1053 10511 10518 10519 10500 10446 10394 10379 10382 10388 10392 10392
1687.4086 10388 10381 10371 10361 10352 10345 10340 10335 10332 10330 10330
1692.7119 10332 10336 10342 10348 10353 10350 10333 10307 10291 10288 10294
1698.0151 10307 10324 10342 10351 10313 10224 10152 10116 10097 10082 10067
1703.3185 10048 10026 10005 9986 9969 9954 9940 9927 9916 9908 9902 9897 9892
1709.5859 9888 9886 9885 9884 9883 9881 9880 9878 9877 9876 9871 9864 9855
1715.8535 9847 9843 9846 9855 9867 9874 9875 9873 9872 9874 9877 9880 9883
1722.1210 9885 9886 9886 9887 9890 9893 9897 9901 9904 9906 9907 9908 9907
1728.3885 9906 9904 9901 9899 9899 9900 9904 9908 9911 9911 9906 9895 9884
1734.6560 9881 9884 9887 9889 9890 9890 9889 9887 9885 9883 9881 9881 9883
1740.9236 9885 9886 9885 9881 9876 9870 9867 9866 9868 9871 9873 9873 9871
1747.1910 9867 9864 9863 9867 9873 9879 9885 9887 9884 9877 9869 9863 9859
1753.4586 9857 9857 9858 9860 9862 9862 9861 9858 9855 9853 9854 9857 9860
1759.7261 9863 9866 9867 9867 9866 9865 9864 9862 9861 9858 9857 9857 9859
1765.9937 9863 9867 9871 9872 9872 9871 9871 9873 9876 9878 9878 9875 9868
1772.2611 9861 9860 9862 9867 9870 9873 9875 9877 9878 9879 9880 9880 9881
1778.5287 9883 9885 9888 9890 9891 9891 9890 9890 9890 9890 9889 9888 9885
1784.7961 9883 9883 9884 9887 9889 9891 9892 9891 9889 9887 9885 9884 9886
1791.0637 9889 9894 9897 9898 9898 9899 9902 9907 9911 9914 9915 9912 9907
1797.3312 9902 9898 9895 9893 9893 9896 9901 9906 9911 9912 9911 9908 9904
1803.5988 9901 9900 9901 9903 9906 9908 9909 9908 9906 9902 9899 9897 9896
1809.8662 9897 9900 9903 9905 9906 9905 9902 9898 9894 9892 9891 9891 9893
1816.1338 9896 9899 9902 9904 9905 9904 9902 9901 9900 9900 9901 9902 9904
1822.4012 9906 9907 9907 9906 9903 9901 9898 9897 9898 9899 9900 9901 9901
1828.6688 9900 9899 9900 9901 9904 9907 9909 9911 9911 9911 9909 9905 9900
1834.9363 9894 9890 9890 9893 9898 9905 9909 9911 9910 9907 9904 9901 9899
1841.2039 9897 9896 9897 9898 9901 9904 9908 9912 9917 9922 9926 9929 9929
1847.4713 9926 9921 9915 9912 9911 9911 9911 9910 9905 9900 9895 9891 9890
1853.7389 9892 9894 9897 9899 9898 9897 9896 9896 9897 9899 9903 9908 9914
1860.0063 9920 9927 9933 9937 9938 9936 9932 9926 9918 9911 9903 9896 9891
1866.2739 9889 9890 9897 9907 9920 9933 9941 9944 9944 9941 9938 9935 9932
1872.5414 9929 9926 9925 9926 9928 9932 9936 9941 9946 9950 9951 9948 9938
1878.8090 9924 9908 9897 9895 9903 9916 9930 9940 9943 9940 9937 9935 9936
1885.0764 9940 9945 9947 9948 9945 9939 9931 9920 9910 9905 9909 9919 9932
1891.3440 9944 9952 9955 9955 9953 9953 9955 9960 9964 9966 9965 9962 9959
1897.6115 9955 9951 9948 9946 9945 9946 9949 9951 9952 9951 9948 9944 9942
1903.8790 9946 9957 9973 9991 10005 10010 10005 9992 9976 9963 9955 9952 9954
1910.1465 9958 9966 9975 9986 9993 9994 9987 9974 9959 9947 9944 9947 9954
1916.4141 9963 9970 9974 9977 9979 9984 9988 9992 9993 9991 9987 9981 9977
1922.6815 9978 9983 9990 9994 9993 9986 9975 9964 9958 9959 9966 9976 9986
1928.9491 9993 9997 9999 10001 10002 10002 10001 9997 9995 9997 10004 10016
1934.7345 10031 10046 10058 10066 10069 10068 10066 10066 10070 10079 10092
1940.0377 10105 10112 10109 10091 10056 10011 9965 9933 9921 9929 9952 9980
1945.8231 10002 10012 10008 9999 9995 10001 10019 10043 10068 10087 10098
1951.1265 10098 10085 10061 10029 9994 9967 9956 9964 9991 10028 10061 10078
1956.9119 10071 10042 10002 9965 9944 9945 9963 9989 10009 10019 10017 10009
1962.6973 9998 9986 9972 9958 9951 9959 9990 10040 10094 10133 10140 10122
1968.4827 10097 10088 10106 10145 10185 10202 10186 10141 10088 10048 10033
1973.7859 10042 10068 10104 10147 10195 10245 10287 10305 10290 10246 10192
1979.0892 10148 10130 10135 10152 10165 10167 10156 10137 10115 10093 10072
1984.3925 10052 10041 10040 10053 10073 10092 10099 10094 10082 10072 10070
1989.6958 10074 10076 10068 10045 10012 9979 9956 9945 9942 9945 9954 9971
1995.4812 9998 10034 10073 10112 10147 10178 10201 10212 10207 10185 10148
2000.7844 10109 10077 10063 10067 10085 10107 10127 10144 10161 10183 10211
2006.0878 10236 10246 10227 10179 10121 10078 10072 10101 10147 10177 10171
2011.3910 10131 10080 10048 10052 10087 10132 10165 10171 10151 10118 10084
2016.6943 10057 10038 10028 10025 10030 10042 10060 10085 10114 10144 10168
2021.9976 10176 10162 10130 10098 10087 10111 10166 10233 10287 10311 10305
2027.3009 10284 10264 10253 10244 10228 10196 10152 10112 10090 10093 10115
2032.6041 10142 10158 10155 10141 10128 10126 10135 10142 10135 10108 10068
2037.9075 10031 10013 10018 10042 10076 10111 10143 10166 10180 10180 10166
2043.2107 10139 10104 10067 10031 9998 9970 9948 9939 9948 9974 10008 10038
2048.9961 10055 10057 10053 10050 10055 10065 10074 10073 10061 10040 10018
2054.2993 9998 9984 9976 9973 9976 9986 10001 10017 10029 10033 10031 10028
2060.0847 10030 10037 10047 10054 10051 10040 10022 10005 9991 9982 9975 9969
2065.8701 9962 9956 9956 9963 9980 10003 10026 10041 10042 10028 10002 9971
2071.6555 9939 9913 9895 9885 9886 9897 9919 9950 9985 10016 10037 10044 10040
2077.9231 10030 10020 10013 10008 9998 9983 9964 9946 9936 9937 9947 9962 9977
2084.1907 9990 10002 10015 10029 10043 10055 10061 10062 10056 10047 10035
2089.4939 10021 10010 10004 10005 10012 10021 10027 10026 10016 10002 9991
2094.7971 9988 9994 10001 10002 9990 9967 9940 9918 9906 9904 9907 9911 9917
2101.0647 9925 9939 9956 9971 9977 9971 9955 9935 9921 9917 9923 9933 9938
2107.3323 9933 9921 9908 9903 9909 9926 9946 9961 9966 9961 9949 9934 9920
2113.5999 9910 9907 9912 9925 9944 9961 9972 9970 9957 9937 9916 9898 9888
2119.8672 9885 9888 9894 9903 9913 9923 9931 9936 9935 9927 9913 9897 9883
2126.1348 9878 9882 9893 9906 9916 9919 9917 9914 9912 9915 9921 9929 9936
2132.4023 9942 9945 9947 9948 9948 9946 9946 9948 9954 9963 9973 9983 9991
2138.6699 9995 9995 9988 9975 9959 9945 9941 9954 9983 10021 10057 10080 10085
2144.9373 10075 10054 10029 10002 9976 9953 9938 9935 9945 9967 9997 10031
2150.7227 10069 10110 10154 10190 10207 10194 10150 10087 10028 10000 10016
2156.0261 10075 10158 10240 10300 10329 10339 10344 10356 10370 10369 10335
2161.3293 10264 10168 10073 10005 9981 10003 10058 10121 10168 10183 10168
2166.6326 10136 10103 10084 10080 10087 10094 10091 10076 10051 10023 10002
2171.9358 9996 10010 10046 10097 10155 10203 10230 10227 10196 10146 10090
2177.2393 10042 10009 9996 10002 10026 10063 10104 10141 10164 10173 10172
2182.5425 10169 10169 10173 10175 10170 10159 10147 10142 10147 10156 10161
2187.8457 10154 10130 10096 10058 10025 10004 9997 10003 10021 10044 10067
2193.1489 10085 10097 10102 10103 10100 10090 10070 10040 10007 9979 9967 9973
2198.9343 9994 10020 10042 10054 10055 10048 10039 10031 10031 10038 10053
2204.2378 10072 10091 10103 10103 10090 10066 10038 10014 10001 9998 9999 9997
2210.0232 9987 9969 9952 9940 9940 9951 9968 9990 10011 10028 10036 10029
2215.8086 10007 9972 9934 9901 9880 9871 9869 9870 9869 9869 9871 9873 9877
2222.0759 9879 9881 9886 9894 9906 9920 9930 9936 9937 9935 9934 9932 9928
2228.3435 9920 9908 9894 9882 9874 9871 9874 9883 9900 9923 9948 9969 9976
2234.6111 9966 9943 9915 9894 9886 9892 9906 9924 9939 9950 9957 9960 9959
2240.8787 9952 9942 9930 9919 9909 9901 9892 9883 9876 9872 9873 9876 9879
2247.1460 9881 9883 9885 9891 9899 9909 9919 9927 9934 9937 9935 9928 9916
2253.4136 9903 9894 9892 9895 9899 9899 9890 9877 9865 9861 9866 9879 9894
2259.6812 9905 9906 9897 9881 9864 9851 9848 9855 9869 9886 9903 9916 9925
2265.9487 9929 9930 9928 9924 9919 9915 9913 9913 9912 9908 9900 9888 9875
2272.2161 9864 9858 9858 9861 9869 9878 9889 9901 9911 9916 9915 9909 9901
2278.4836 9896 9896 9902 9910 9917 9919 9917 9913 9909 9907 9907 9906 9902
2284.7512 9894 9883 9871 9862 9856 9855 9856 9859 9862 9867 9872 9878 9883
2291.0188 9886 9886 9886 9885 9887 9891 9896 9899 9899 9893 9882 9869 9857
2297.2861 9849 9845 9844 9847 9850 9854 9857 9858 9860 9862 9866 9872 9880
2303.5537 9890 9898 9904 9905 9903 9899 9893 9888 9882 9877 9872 9869 9867
2309.8213 9866 9865 9865 9865 9867 9871 9878 9884 9888 9890 9888 9885 9882
2316.0889 9881 9882 9882 9881 9878 9876 9876 9880 9889 9899 9907 9911 9911
2322.3562 9907 9901 9894 9888 9882 9877 9874 9875 9882 9894 9912 9931 9950
2328.6238 9964 9972 9975 9974 9972 9967 9959 9946 9929 9911 9898 9892 9896
2334.8914 9907 9919 9927 9927 9920 9908 9896 9887 9886 9891 9901 9910 9912
2341.1589 9903 9888 9877 9878 9895 9922 9949 9963 9960 9944 9923 9906 9895
2347.4263 9889 9885 9881 9876 9871 9867 9864 9864 9868 9873 9878 9880 9875
2353.6938 9864 9850 9842 9846 9866 9900 9941 9978 10001 10008 10001 9986 9968
2359.9614 9950 9932 9911 9889 9869 9858 9859 9874 9896 9916 9925 9921 9910
2366.2290 9902 9902 9911 9921 9925 9918 9904 9891 9886 9891 9903 9916 9925
2372.4963 9927 9924 9916 9905 9892 9879 9871 9869 9874 9882 9890 9893 9891
2378.7639 9886 9882 9879 9880 9882 9882 9880 9875 9868 9861 9854 9849 9846
2385.0315 9847 9851 9855 9860 9863 9864 9863 9861 9858 9856 9853 9851 9850
2391.2991 9851 9853 9855 9856 9856 9853 9848 9843 9840 9838 9838 9840 9842
2397.5664 9846 9850 9856 9862 9867 9870 9870 9867 9862 9856 9850 9847 9847
2403.8340 9848 9850 9851 9852 9853 9853 9854 9856 9857 9858 9859 9859 9858
2410.1016 9855 9852 9847 9842 9838 9835 9835 9837 9840 9843 9846 9848 9850
2416.3691 9850 9850 9850 9849 9847 9845 9843 9842 9843 9846 9849 9852 9851
2422.6365 9848 9841 9835 9830 9829 9831 9835 9839 9842 9842 9840 9839 9838
2428.9041 9838 9839 9839 9837 9833 9828 9825 9823 9823 9823 9824 9825 9826
2435.1716 9828 9832 9835 9836 9834 9828 9822 9815 9812 9813 9818 9824 9830
2441.4392 9833 9833 9831 9827 9824 9821 9818 9816 9813 9811 9810 9811 9813
2447.7065 9816 9819 9822 9825 9829 9832 9834 9834 9833 9831 9829 9827 9825
2453.9741 9823 9823 9824 9828 9834 9841 9844 9844 9840 9833 9827 9823 9821
2460.2417 9820 9820 9820 9821 9822 9825 9828 9832 9834 9835 9834 9833 9832
2466.5093 9831 9829 9827 9825 9823 9822 9820 9819 9818 9815 9812 9807 9803
2472.7766 9801 9803 9808 9816 9824 9831 9834 9833 9830 9825 9822 9820 9820
2479.0442 9820 9818 9813 9805 9796 9789 9786 9787 9791 9798 9805 9810 9814
2485.3118 9815 9813 9808 9801 9795 9792 9792 9793 9795 9796 9795 9792 9789
2491.5793 9784 9778 9774 9771 9771 9773 9775 9778 9778 9777 9775 9775 9777
2497.8467 9780 9784 9787 9786 9783 9779 9774 9772 9771 9773 9776 9778 9779
2504.1143 9779 9777 9773 9768 9763 9760 9759 9762 9766 9770 9771 9770 9767
2510.3818 9764 9762 9763 9765 9767 9767 9765 9761 9756 9752 9749 9747 9746
2516.6494 9747 9749 9752 9756 9760 9762 9760 9755 9749 9742 9739 9739 9741
2522.9167 9742 9741 9736 9729 9723 9719 9719 9721 9723 9724 9724 9723 9723
2529.1843 9725 9728 9731 9733 9734 9734 9735 9738 9741 9744 9745 9743 9738
2535.4519 9730 9722 9715 9710 9710 9712 9716 9721 9725 9728 9729 9727 9724
2541.7195 9720 9717 9714 9712 9711 9710 9709 9710 9713 9717 9722 9726 9730
2547.9868 9731 9730 9727 9722 9717 9714 9713 9714 9716 9714 9709 9701 9693
2554.2544 9687 9685 9686 9689 9693 9697 9702 9707 9712 9716 9716 9712 9705
2560.5220 9697 9691 9690 9693 9699 9705 9709 9710 9709 9708 9709 9712 9716
2566.7896 9720 9721 9721 9718 9716 9715 9715 9715 9714 9714 9713 9714 9716
2573.0569 9720 9726 9730 9732 9732 9729 9725 9721 9718 9718 9719 9721 9723
2579.3245 9722 9718 9714 9710 9709 9713 9719 9727 9735 9741 9743 9742 9739
2585.5920 9736 9734 9734 9735 9735 9735 9732 9730 9727 9726 9726 9727 9729
2591.8596 9732 9735 9739 9742 9744 9744 9742 9739 9736 9732 9729 9726 9724
2598.1272 9723 9723 9724 9725 9726 9727 9729 9733 9737 9740 9741 9740 9737
2604.3945 9733 9729 9727 9726 9727 9728 9729 9729 9730 9731 9735 9739 9742
2610.6621 9742 9738 9730 9721 9712 9705 9702 9702 9705 9710 9715 9719 9721
2616.9297 9721 9721 9720 9721 9724 9728 9730 9731 9729 9725 9721 9718 9718
2623.1973 9720 9724 9730 9736 9741 9744 9744 9742 9739 9736 9733 9730 9728
2629.4646 9726 9723 9720 9718 9716 9716 9718 9719 9720 9721 9719 9718 9716
2635.7322 9713 9711 9709 9706 9704 9701 9700 9698 9696 9693 9691 9690 9690
2641.9998 9691 9692 9694 9694 9693 9691 9690 9688 9687 9686 9685 9684 9684
2648.2673 9685 9686 9689 9691 9692 9692 9692 9691 9691 9691 9691 9691 9689
2654.5347 9687 9685 9684 9684 9684 9685 9685 9685 9684 9684 9684 9683 9682
2660.8022 9680 9678 9676 9675 9674 9673 9672 9671 9668 9666 9665 9666 9667
2667.0698 9668 9670 9670 9668 9664 9659 9653 9648 9646 9645 9648 9650 9653
2673.3374 9654 9653 9651 9648 9646 9644 9642 9640 9639 9639 9640 9641 9643
2679.6047 9645 9645 9645 9644 9642 9640 9638 9635 9633 9632 9632 9632 9634
2685.8723 9636 9637 9638 9638 9638 9639 9640 9642 9642 9642 9640 9637 9635
2692.1399 9633 9632 9631 9630 9628 9626 9624 9622 9621 9620 9619 9618 9617
2698.4075 9616 9616 9615 9615 9614 9613 9612 9609 9606 9601 9597 9595 9594
2704.6748 9596 9599 9601 9602 9601 9598 9594 9590 9586 9583 9581 9579 9578
2710.9424 9577 9577 9576 9574 9573 9571 9570 9570 9570 9570 9570 9570 9570
2717.2100 9569 9569 9568 9567 9565 9563 9560 9558 9557 9557 9558 9559 9560
2723.4775 9563 9565 9568 9570 9570 9571 9571 9572 9575 9579 9583 9585 9586
2729.7449 9585 9583 9581 9582 9584 9588 9593 9598 9602 9604 9605 9606 9607
2736.0125 9607 9607 9607 9607 9608 9609 9610 9612 9614 9616 9617 9617 9617
2742.2800 9616 9616 9615 9615 9617 9620 9624 9628 9630 9631 9631 9631 9632
2748.5476 9632 9632 9632 9632 9631 9631 9632 9634 9637 9640 9643 9646 9648
2754.8149 9649 9650 9652 9653 9655 9657 9660 9662 9663 9663 9662 9660 9659
2761.0825 9659 9660 9661 9662 9662 9661 9661 9661 9663 9665 9666 9666 9666
2767.3501 9665 9665 9664 9664 9665 9666 9668 9668 9667 9663 9657 9652 9647
2773.6177 9644 9642 9641 9640 9641 9644 9648 9653 9656 9657 9655 9650 9644
2779.8850 9638 9634 9631 9630 9629 9629 9630 9631 9633 9635 9637 9638 9638
2786.1526 9636 9634 9631 9628 9626 9624 9622 9620 9617 9613 9609 9605 9602
2792.4202 9600 9599 9599 9598 9597 9595 9592 9590 9587 9583 9580 9577 9575
2798.6877 9572 9569 9566 9563 9561 9559 9558 9558 9557 9555 9552 9549 9546
2804.9551 9543 9541 9540 9538 9537 9537 9539 9541 9543 9543 9541 9537 9533
2811.2227 9530 9530 9531 9533 9534 9533 9529 9525 9520 9516 9515 9514 9515
2817.4902 9516 9517 9517 9517 9517 9516 9516 9516 9516 9516 9514 9513 9511
2823.7578 9511 9512 9513 9515 9516 9516 9514 9511 9506 9502 9497 9492 9488
2830.0251 9486 9486 9488 9490 9493 9493 9492 9490 9486 9482 9478 9475 9472
2836.2927 9471 9470 9469 9468 9468 9468 9468 9468 9469 9469 9470 9472 9474
2842.5603 9477 9480 9482 9483 9482 9481 9479 9479 9481 9482 9483 9482 9481
2848.8279 9480 9481 9482 9484 9487 9488 9489 9489 9488 9487 9486 9487 9487
2855.0952 9487 9486 9485 9483 9480 9477 9474 9471 9468 9466 9464 9462 9461
2861.3628 9459 9456 9452 9447 9443 9439 9436 9433 9429 9426 9422 9419 9415
2867.6304 9411 9405 9398 9391 9385 9379 9375 9373 9370 9367 9363 9360 9357
2873.8979 9355 9354 9352 9350 9348 9346 9344 9341 9339 9336 9334 9333 9332
2880.1653 9333 9334 9335 9335 9334 9333 9332 9332 9333 9334 9336 9338 9341
2886.4329 9343 9344 9345 9345 9343 9340 9337 9334 9332 9329 9326 9324 9321
2892.7004 9319 9317 9315 9312 9308 9304 9298 9291 9284 9277 9269 9261 9253
2898.9680 9244 9235 9224 9213 9201 9189 9180 9172 9169 9168 9171 9176 9182
2905.2354 9188 9196 9204 9214 9226 9240 9255 9268 9278 9287 9293 9299 9306
2911.5029 9314 9323 9333 9342 9350 9357 9363 9367 9369 9370 9369 9366 9362
2917.7705 9358 9353 9348 9343 9338 9331 9321 9308 9292 9274 9252 9228 9200
2924.0381 9172 9143 9115 9091 9068 9047 9026 9003 8981 8963 8953 8954 8968
2930.3054 8994 9028 9069 9112 9157 9201 9243 9283 9318 9349 9375 9398 9417
2936.5730 9434 9449 9460 9466 9466 9461 9451 9439 9427 9419 9416 9419 9428
2942.8406 9442 9460 9480 9500 9518 9532 9543 9549 9552 9553 9554 9555 9554
2949.1082 9551 9546 9540 9534 9528 9524 9521 9516 9511 9505 9497 9489 9480
2955.3755 9469 9456 9441 9423 9404 9385 9367 9353 9343 9337 9334 9335 9339
2961.6431 9344 9349 9353 9357 9361 9366 9373 9381 9388 9392 9390 9385 9380
2967.9106 9378 9383 9398 9422 9453 9487 9521 9553 9581 9607 9628 9646 9662
2974.1782 9676 9686 9693 9696 9695 9693 9691 9692 9696 9700 9704 9707 9707
2980.4456 9707 9707 9708 9708 9709 9709 9709 9709 9709 9709 9708 9706 9703
2986.7131 9699 9694 9688 9680 9670 9661 9654 9650 9649 9650 9653 9655 9657
2992.9807 9660 9663 9667 9670 9672 9672 9671 9670 9670 9671 9671 9669 9666
2999.2483 9662 9658 9653 9648 9643 9636 9628 9620 9614 9609 9606 9603 9601
3005.5156 9600 9600 9603 9609 9617 9625 9632 9637 9642 9647 9651 9654 9656
3011.7832 9655 9653 9650 9649 9649 9651 9654 9654 9652 9646 9638 9629 9622
3018.0508 9619 9618 9620 9621 9619 9613 9604 9595 9588 9583 9580 9576 9571
3024.3184 9563 9553 9542 9532 9523 9517 9513 9510 9508 9507 9508 9513 9521
3030.5857 9533 9548 9564 9577 9588 9595 9600 9603 9605 9605 9605 9604 9602
3036.8533 9600 9599 9599 9599 9599 9600 9601 9600 9598 9595 9591 9587 9584
3043.1208 9581 9580 9579 9580 9582 9585 9589 9591 9592 9591 9588 9583 9579
3049.3884 9576 9574 9574 9575 9576 9577 9577 9575 9572 9568 9564 9561 9560
3055.6558 9559 9557 9554 9550 9544 9538 9534 9532 9532 9534 9537 9539 9540
3061.9233 9538 9534 9529 9524 9520 9518 9516 9515 9514 9511 9508 9505 9503
3068.1909 9502 9500 9497 9492 9485 9477 9471 9466 9463 9461 9459 9458 9457
3074.4585 9457 9456 9456 9454 9452 9450 9448 9445 9442 9438 9434 9431 9430
3080.7258 9429 9429 9427 9423 9416 9406 9397 9389 9385 9385 9387 9390 9393
3086.9934 9394 9392 9387 9381 9375 9369 9362 9356 9352 9349 9348 9349 9351
3093.2610 9351 9351 9349 9347 9344 9342 9338 9333 9327 9318 9309 9301 9296
3099.5286 9294 9295 9297 9298 9297 9292 9285 9279 9274 9271 9268 9263 9257
3105.7959 9250 9243 9238 9236 9236 9236 9234 9231 9228 9225 9222 9219 9216
3112.0635 9211 9206 9200 9194 9188 9181 9173 9166 9158 9151 9144 9138 9134
3118.3311 9131 9129 9128 9127 9124 9119 9114 9108 9103 9099 9094 9090 9083
3124.5986 9076 9068 9061 9055 9050 9046 9042 9037 9032 9028 9024 9019 9015
3130.8660 9010 9004 8998 8992 8986 8980 8974 8969 8964 8959 8955 8950 8945
3137.1335 8939 8933 8927 8921 8914 8907 8898 8890 8882 8877 8873 8870 8867
3143.4011 8862 8855 8846 8836 8827 8819 8812 8805 8799 8793 8787 8781 8774
3149.6687 8765 8754 8743 8732 8723 8716 8709 8701 8692 8681 8669 8659 8649
3155.9360 8641 8634 8625 8616 8606 8595 8585 8576 8568 8560 8553 8546 8539
3162.2036 8531 8522 8511 8499 8488 8479 8471 8464 8457 8449 8440 8431 8423
3168.4712 8415 8406 8395 8382 8369 8357 8347 8337 8328 8318 8305 8292 8279
3174.7388 8266 8255 8245 8237 8230 8225 8220 8215 8210 8202 8193 8181 8166
3181.0061 8148 8129 8111 8094 8082 8073 8066 8059 8051 8041 8030 8019 8008
3187.2737 7998 7989 7982 7977 7972 7966 7957 7944 7931 7917 7905 7894 7885
3193.5413 7876 7865 7852 7838 7825 7812 7800 7789 7778 7767 7756 7746 7736
3199.8088 7725 7715 7705 7695 7684 7673 7662 7652 7644 7638 7632 7626 7618
3206.0762 7606 7593 7580 7568 7558 7549 7541 7532 7521 7509 7495 7481 7468
3212.3438 7455 7444 7436 7430 7426 7422 7415 7407 7397 7387 7377 7370 7364
3218.6113 7359 7352 7343 7332 7319 7305 7290 7278 7267 7260 7256 7255 7254
3224.8789 7253 7250 7243 7232 7221 7209 7199 7191 7184 7176 7168 7160 7154
3231.1462 7151 7152 7155 7158 7159 7158 7153 7148 7142 7139 7136 7133 7128
3237.4138 7122 7114 7107 7101 7097 7095 7093 7091 7088 7084 7079 7074 7070
3243.6814 7070 7072 7078 7087 7096 7104 7110 7113 7114 7113 7112 7110 7109
3249.9490 7109 7110 7111 7112 7112 7111 7111 7111 7114 7118 7123 7127 7130
3256.2163 7132 7134 7136 7140 7144 7148 7152 7156 7161 7167 7173 7179 7184
3262.4839 7188 7192 7196 7199 7201 7201 7200 7198 7196 7195 7195 7195 7197
3268.7515 7201 7207 7214 7221 7227 7229 7230 7230 7230 7233 7237 7243 7248
3275.0190 7251 7250 7248 7244 7242 7243 7248 7256 7265 7274 7279 7281 7280
3281.2864 7279 7278 7280 7284 7287 7289 7287 7284 7280 7278 7279 7283 7289
3287.5540 7294 7298 7299 7299 7296 7293 7291 7289 7288 7289 7290 7292 7295
3293.8215 7299 7304 7309 7314 7318 7322 7325 7327 7326 7322 7316 7308 7300
3300.0891 7294 7291 7290 7292 7294 7294 7291 7287 7282 7280 7280 7283 7289
3306.3564 7295 7302 7309 7316 7320 7321 7319 7315 7312 7311 7315 7323 7333
3312.6240 7346 7356 7364 7369 7371 7372 7375 7381 7391 7403 7417 7429 7441
3318.8916 7451 7460 7468 7475 7479 7483 7488 7495 7506 7520 7539 7559 7580
3325.1592 7599 7616 7631 7645 7660 7677 7694 7711 7728 7745 7762 7780 7798
3331.4265 7817 7833 7848 7861 7873 7885 7897 7910 7924 7939 7957 7978 8002
3337.6941 8027 8052 8074 8092 8104 8112 8118 8125 8135 8147 8161 8174 8187
3343.9617 8199 8210 8220 8229 8236 8241 8244 8247 8252 8262 8275 8290 8306
3350.2292 8320 8331 8340 8346 8351 8356 8360 8364 8367 8371 8375 8379 8383
3356.4966 8388 8392 8397 8404 8414 8425 8437 8447 8455 8459 8461 8462 8461
3362.7642 8460 8458 8458 8460 8468 8482 8499 8515 8525 8529 8528 8526 8529
3369.0317 8538 8550 8564 8574 8581 8587 8593 8599 8606 8610 8610 8609 8607
3375.2993 8609 8615 8624 8635 8644 8653 8661 8670 8678 8686 8691 8694 8696
3381.5667 8700 8706 8715 8726 8737 8745 8751 8753 8753 8752 8752 8754 8759
3387.8342 8767 8777 8787 8796 8803 8807 8811 8815 8823 8833 8845 8856 8864
3394.1018 8868 8868 8864 8859 8854 8850 8849 8851 8855 8861 8871 8882 8894
3400.3694 8904 8913 8918 8921 8923 8924 8927 8932 8937 8943 8947 8949 8949
3406.6367 8947 8946 8946 8946 8948 8949 8951 8952 8953 8955 8957 8961 8966
3412.9043 8971 8977 8983 8988 8992 8995 8997 8998 8998 8998 8997 8996 8994
3419.1719 8989 8984 8977 8971 8967 8965 8964 8965 8965 8965 8964 8962 8959
3425.4395 8957 8955 8955 8955 8954 8952 8950 8946 8940 8933 8923 8911 8897
3431.7068 8883 8871 8861 8851 8841 8829 8816 8801 8785 8770 8754 8737 8720
3437.9744 8700 8679 8655 8628 8600 8569 8538 8507 8476 8445 8413 8382 8348
3444.2419 8314 8278 8241 8203 8164 8123 8083 8043 8005 7968 7934 7902 7870
3450.5095 7840 7811 7782 7755 7730 7709 7693 7682 7676 7674 7676 7681 7690
3456.7769 7703 7721 7745 7776 7812 7853 7897 7944 7993 8044 8097 8152 8208
3463.0444 8263 8317 8370 8424 8479 8534 8588 8639 8686 8729 8769 8808 8847
3469.3120 8889 8932 8977 9021 9063 9100 9131 9156 9176 9194 9210 9227 9244
3475.5796 9261 9279 9298 9319 9341 9362 9382 9400 9416 9431 9446 9460 9472
3481.8469 9483 9491 9497 9504 9510 9518 9528 9538 9547 9556 9565 9573 9581
3488.1145 9589 9597 9605 9612 9618 9623 9630 9636 9642 9646 9649 9650 9652
3494.3821 9654 9659 9667 9676 9684 9691 9696 9700 9702 9705 9707 9710 9712
3500.6497 9714 9718 9724 9731 9736 9739 9738 9735 9732 9733 9737 9745 9755
3506.9170 9763 9769 9773 9775 9778 9781 9784 9786 9787 9786 9784 9783 9782
3513.1846 9782 9783 9785 9789 9793 9798 9803 9806 9808 9809 9810 9812 9815
3519.4521 9819 9825 9832 9839 9846 9851 9854 9853 9850 9846 9843 9843 9845
3525.7197 9849 9854 9858 9861 9864 9866 9868 9869 9868 9866 9863 9862 9864
3531.9871 9868 9875 9880 9883 9882 9877 9871 9869 9871 9879 9891 9901 9908
3538.2546 9909 9905 9900 9897 9898 9903 9911 9921 9928 9931 9929 9924 9919
3544.5222 9917 9918 9921 9922 9918 9910 9902 9899 9901 9909 9921 9934 9945
3550.7898 9952 9953 9949 9943 9938 9937 9940 9947 9954 9961 9965 9968 9969
3557.0571 9969 9968 9964 9958 9950 9941 9937 9939 9947 9958 9969 9976 9980
3563.3247 9980 9979 9978 9978 9975 9966 9950 9932 9919 9918 9930 9947 9965
3569.5923 9976 9981 9978 9972 9966 9964 9966 9972 9979 9985 9989 9989 9987
3575.8599 9985 9985 9986 9990 9994 9997 9996 9992 9986 9980 9978 9979 9982
3582.1274 9987 9991 9995 9998 10001 10003 10004 10003 9998 9991 9985 9985 9990
3588.3948 9998 10006 10011 10012 10012 10009 10007 10004 10002 10000 9999 9997
3594.1802 9995 9994 9997 10002 10007 10012 10014 10012 10009 10006 10005 10007
3599.9656 10010 10013 10017 10021 10024 10025 10023 10019 10014 10009 10006
3605.2690 10005 10007 10008 10006 10001 9993 9988 9988 9994 10005 10014 10021
3611.0544 10023 10022 10021 10021 10023 10026 10028 10027 10025 10021 10019
3616.3577 10019 10019 10018 10014 10007 9999 9993 9992 9997 10006 10014 10019
3622.1431 10023 10025 10028 10034 10041 10047 10050 10048 10043 10036 10031
3627.4463 10029 10027 10023 10014 10004 9998 9996 9997 10000 10003 10007 10009
3633.2317 10008 10002 9996 9992 9993 9999 10007 10016 10023 10025 10023 10020
3639.0171 10019 10021 10026 10032 10035 10033 10025 10015 10008 10007 10012
3644.3203 10022 10035 10049 10062 10069 10068 10058 10044 10032 10020 10006
3649.6238 9987 9967 9955 9954 9962 9974 9987 10001 10015 10029 10042 10050
3655.4092 10048 10036 10021 10014 10016 10024 10033 10038 10037 10032 10025
3660.7124 10019 10014 10010 10007 10005 10005 10008 10014 10023 10031 10037
3666.0156 10042 10045 10049 10052 10052 10047 10033 10010 9988 9978 9981 9992
3671.8010 10003 10013 10020 10026 10030 10032 10030 10022 10014 10013 10017
3677.1042 10022 10027 10028 10024 10018 10011 10006 10005 10007 10010 10013
3682.4077 10015 10016 10016 10014 10012 10010 10011 10015 10021 10030 10038
3687.7109 10044 10044 10038 10031 10022 10014 10007 10003 10003 10007 10012
3693.0142 10017 10019 10019 10016 10012 10010 10010 10012 10014 10015 10012
3698.3174 10007 10002 10001 10003 10008 10011 10011 10007 10003 10003 10008
3703.6208 10014 10020 10022 10020 10017 10014 10016 10020 10026 10029 10026
3708.9241 10019 10012 10010 10016 10026 10035 10035 10027 10017 10010 10006
3714.2273 10005 10005 10005 10006 10007 10010 10014 10019 10023 10024 10023
3719.5305 10021 10017 10014 10011 10007 10004 10004 10009 10017 10027 10034
3724.8340 10034 10025 10007 9988 9978 9979 9988 10001 10014 10024 10030 10031
3730.6194 10027 10019 10010 10005 10006 10012 10018 10022 10022 10019 10017
3735.9226 10016 10014 10011 10006 10003 10004 10007 10011 10013 10009 10002
3741.2258 9996 9994 9997 10005 10013 10012 9996 9977 9972 9981 9993 10005
3747.0112 10015 10019 10017 10006 9991 9978 9972 9973 9975 9977 9978 9982 9990
3753.2788 9998 10005 10008 10008 10003 9997 9992 9991 9994 9999 10004 10006
3759.0642 10004 10000 9997 9994 9993 9993 9994 9996 10000 10005 10011 10016
3764.8496 10018 10016 10013 10012 10015 10022 10031 10038 10038 10029 10011
3770.1528 9995 9987 9988 9995 10004 10011 10014 10014 10010 10007 10005 10007
3775.9382 10010 10015 10020 10024 10025 10021 10014 10004 9997 9994 9995 9998
3781.7236 10002 10005 10006 10005 10001 9996 9992 9989 9990 9992 9996 10001
3787.5090 10006 10011 10015 10018 10018 10014 10008 10002 9997 9997 10003
3792.8123 10013 10024 10033 10036 10031 10019 9999 9978 9964 9960 9964 9973
3798.5977 9984 9997 10009 10021 10027 10022 10007 9994 9990 9994 10002 10010
3804.3831 10016 10018 10014 10005 9993 9984 9983 9986 9992 9997 10000 10002
3810.1685 10002 10001 9998 9996 9996 9998 10004 10011 10019 10022 10019 10006
3815.9539 9993 9988 9992 10002 10014 10026 10037 10045 10043 10025 9993 9965
3821.7393 9956 9960 9970 9982 9991 9998 10003 10004 10003 9997 9991 9986 9986
3828.0068 9991 10000 10010 10018 10022 10021 10016 10008 10002 9998 9996 9995
3833.7922 9993 9992 9991 9992 9994 9994 9993 9990 9985 9983 9982 9981 9978
3840.0598 9973 9968 9968 9972 9980 9988 9994 9996 9994 9988 9982 9977 9972
3846.3274 9971 9972 9977 9984 9990 9995 9997 9996 9994 9993 9995 9999 10006
3852.5947 10009 10004 9991 9982 9980 9982 9987 9989 9988 9984 9978 9975 9976
3858.8623 9982 9991 10000 10005 10006 10002 9997 9992 9989 9985 9979 9969 9959
3865.1299 9955 9961 9973 9987 10003 10017 10029 10037 10034 10019 9999 9987
3870.9153 9984 9986 9990 9992 9989 9979 9966 9955 9953 9958 9969 9982 9996
3877.1829 10009 10020 10029 10033 10029 10018 10002 9987 9979 9977 9978 9982
3882.9683 9986 9989 9991 9989 9983 9976 9971 9974 9980 9986 9991 9994 9995
3889.2356 9996 9997 9997 9996 9990 9984 9979 9978 9981 9984 9985 9984 9980
3895.5032 9977 9975 9975 9978 9982 9984 9984 9983 9982 9983 9985 9988 9991
3901.7708 9994 9998 10004 10010 10014 10013 10005 9994 9982 9975 9974 9976
3907.5562 9981 9986 9989 9988 9985 9981 9978 9976 9975 9975 9974 9972 9970
3913.8237 9969 9971 9976 9984 9993 10002 10007 10006 10002 9994 9985 9974 9965
3920.0911 9958 9957 9961 9969 9976 9982 9984 9983 9981 9981 9984 9989 9994
3926.3586 9995 9993 9987 9979 9971 9967 9967 9971 9976 9977 9975 9970 9966
3932.6262 9965 9967 9972 9977 9980 9981 9982 9983 9984 9984 9983 9981 9977
3938.8938 9974 9972 9972 9974 9976 9977 9976 9973 9969 9966 9963 9963 9964
3945.1611 9965 9968 9970 9974 9979 9982 9982 9977 9969 9960 9955 9956 9964
3951.4287 9973 9982 9987 9986 9982 9977 9973 9971 9972 9975 9979 9984 9987
3957.6963 9989 9989 9986 9982 9978 9974 9972 9972 9974 9977 9981 9985 9988
3963.9639 9989 9988 9985 9981 9978 9977 9979 9982 9985 9985 9982 9977 9971
3970.2312 9967 9967 9971 9978 9985 9990 9992 9991 9987 9983 9978 9976 9977
3976.4988 9980 9985 9991 9996 9998 9997 9993 9988 9984 9981 9980 9981 9981
3982.7664 9979 9976 9972 9968 9967 9969 9973 9980 9987 9992 9995 9996 9993
3989.0339 9988 9983 9978 9977 9980 9985 9991 9994 9995 9993 9989 9985 9982
3995.3013 9980 9979 9979 9980 9982 9984 9986 9987 9988 9990 9992
##END= 
