##TITLE= STDSULFANILAMIDE
##JCAMP-DX= 4.24
##DATA TYPE= INFRARED SPECTRUM
##ORIGIN= JASCO
##OWNER= 
##DATE= 22/03/31
##TIME= 09:41:38
##SPECTROMETER/DATA SYSTEM= 
##RESOLUTION= 
##DELTAX=   0.48211674
##XUNITS= 1/CM
##YUNITS= TRANSMITTANCE
##XFACTOR= 1.00000
##YFACTOR= 0.0001
##FIRSTX=   599.7532
##LASTX=  4000.1226
##NPOINTS=     7054
##FIRSTY=      0.83189
##MAXY=      1.11061
##MINY=      0.57111
##XYDATA= (X++(Y..Y))
599.7532 8319 8289 8266 8252 8244 8239 8235 8229 8220 8206 8189 8168 8145 8125
606.5029 8112 8109 8116 8127 8136 8133 8115 8081 8040 8000 7972 7960 7959 7965
613.2525 7970 7972 7974 7981 7997 8019 8040 8052 8049 8032 8006 7977 7952 7933
620.0021 7922 7920 7929 7948 7973 7994 8002 7991 7962 7922 7886 7865 7863 7876
626.7518 7895 7913 7929 7944 7958 7973 7985 7994 8004 8022 8055 8111 8187 8273
633.5014 8355 8416 8441 8423 8367 8285 8196 8118 8060 8024 8006 8002 8008 8020
640.2510 8038 8059 8081 8102 8123 8144 8166 8185 8201 8214 8226 8243 8265 8291
647.0007 8318 8340 8353 8358 8356 8349 8341 8334 8330 8330 8335 8347 8366 8390
653.7503 8417 8444 8465 8472 8463 8441 8412 8384 8362 8347 8336 8326 8315 8302
660.4999 8285 8261 8227 8186 8142 8099 8061 8024 7984 7940 7892 7848 7813 7789
667.2496 7770 7725 7607 7449 7328 7248 7185 7124 7055 6979 6899 6818 6738 6657
673.9992 6571 6474 6370 6264 6166 6084 6022 5981 5958 5949 5955 5975 6008 6046
680.7488 6077 6086 6063 6014 5956 5917 5917 5967 6057 6170 6283 6381 6458 6516
687.4985 6558 6586 6596 6588 6564 6536 6515 6513 6535 6583 6656 6745 6839 6922
694.2481 6983 7018 7029 7022 7004 6982 6963 6957 6976 7030 7119 7234 7353 7454
700.9977 7519 7547 7545 7526 7501 7480 7467 7466 7483 7522 7586 7669 7760 7844
707.7474 7904 7930 7922 7891 7850 7817 7802 7810 7838 7883 7938 7997 8055 8106
714.4970 8146 8172 8182 8178 8168 8159 8161 8179 8217 8271 8335 8401 8459 8500
721.2466 8520 8522 8512 8500 8492 8493 8504 8524 8550 8581 8616 8652 8683 8705
727.9963 8714 8712 8702 8689 8681 8680 8688 8705 8728 8756 8787 8819 8852 8886
734.7459 8919 8954 8993 9037 9087 9140 9192 9239 9278 9313 9350 9399 9465 9551
741.4955 9654 9771 9891 10009 10115 10207 10283 10347 10410 10480 10565 10665
747.2809 10770 10868 10943 10988 11010 11021 11036 11062 11090 11106 11094
752.5842 11051 10987 10917 10852 10792 10736 10680 10633 10605 10607 10632
757.8875 10665 10678 10658 10608 10553 10518 10523 10568 10642 10727 10807
763.1908 10872 10922 10961 10989 10999 10983 10940 10872 10785 10688 10585
768.4941 10479 10369 10258 10146 10035 9926 9821 9722 9631 9549 9478 9419 9371
774.7616 9334 9306 9286 9271 9256 9237 9211 9179 9146 9116 9094 9082 9079 9083
781.5112 9090 9099 9107 9113 9116 9114 9109 9104 9099 9097 9096 9095 9094 9093
788.2609 9093 9096 9101 9109 9116 9123 9129 9134 9136 9132 9119 9099 9075 9054
795.0105 9041 9039 9043 9047 9046 9037 9024 9011 9000 8992 8983 8971 8956 8938
801.7601 8922 8908 8896 8884 8871 8858 8846 8836 8825 8808 8785 8755 8722 8690
808.5098 8657 8623 8584 8538 8487 8433 8380 8327 8272 8213 8149 8082 8012 7941
815.2594 7867 7788 7703 7611 7515 7418 7325 7240 7167 7107 7058 7018 6985 6957
822.0090 6935 6924 6930 6961 7021 7110 7224 7357 7499 7642 7778 7902 8008 8093
828.7587 8152 8181 8178 8146 8088 8009 7913 7802 7675 7534 7381 7228 7089 6981
835.5083 6918 6909 6958 7062 7213 7400 7611 7834 8059 8276 8480 8671 8849 9016
842.2579 9169 9305 9419 9507 9571 9616 9647 9669 9682 9688 9686 9680 9673 9669
849.0076 9671 9677 9686 9694 9700 9703 9703 9700 9694 9685 9674 9658 9638 9615
855.7572 9592 9572 9559 9552 9550 9548 9543 9534 9521 9507 9494 9481 9468 9452
862.5068 9435 9418 9404 9393 9385 9375 9362 9344 9323 9304 9289 9280 9274 9270
869.2565 9264 9256 9244 9227 9206 9183 9160 9140 9124 9111 9101 9090 9076 9059
876.0061 9040 9019 8999 8980 8960 8939 8914 8885 8853 8820 8787 8755 8726 8698
882.7557 8672 8645 8617 8587 8555 8521 8486 8449 8412 8374 8335 8296 8257 8220
889.5054 8184 8148 8112 8074 8034 7992 7949 7906 7866 7830 7798 7772 7751 7735
896.2550 7722 7714 7709 7708 7712 7720 7735 7757 7785 7819 7859 7904 7955 8015
903.0046 8083 8161 8247 8339 8433 8527 8621 8712 8804 8894 8984 9071 9155 9231
909.7543 9298 9355 9402 9439 9470 9496 9521 9547 9573 9598 9620 9637 9649 9656
916.5039 9660 9663 9665 9667 9670 9675 9684 9694 9705 9714 9719 9721 9720 9720
923.2535 9721 9723 9725 9725 9722 9717 9713 9710 9710 9710 9708 9704 9697 9690
930.0032 9686 9686 9689 9692 9694 9692 9686 9677 9667 9659 9653 9651 9652 9654
936.7528 9656 9655 9653 9649 9645 9641 9636 9628 9619 9608 9596 9585 9575 9566
943.5024 9556 9546 9534 9521 9506 9487 9467 9447 9428 9412 9399 9390 9385 9386
950.2521 9395 9413 9438 9465 9488 9502 9507 9505 9501 9499 9501 9503 9503 9499
957.0017 9492 9482 9473 9465 9459 9453 9446 9439 9431 9422 9409 9390 9365 9334
963.7513 9301 9268 9237 9207 9176 9137 9089 9029 8962 8892 8830 8788 8777 8804
970.5010 8868 8964 9077 9191 9292 9372 9427 9460 9477 9483 9484 9483 9483 9484
977.2506 9484 9482 9476 9466 9454 9442 9432 9424 9418 9412 9404 9396 9387 9379
984.0002 9373 9370 9368 9367 9367 9366 9364 9359 9351 9341 9329 9316 9304 9293
990.7499 9285 9278 9275 9272 9270 9265 9257 9245 9231 9215 9201 9189 9177 9167
997.4995 9155 9143 9129 9115 9099 9077 9049 9014 8976 8944 8926 8931 8959 9007
1004.2491 9063 9117 9159 9187 9202 9207 9208 9207 9207 9208 9208 9207 9204
1010.5167 9200 9194 9187 9179 9171 9163 9156 9148 9141 9134 9128 9125 9123
1016.7842 9122 9120 9118 9112 9105 9098 9090 9082 9074 9066 9059 9053 9050
1023.0517 9047 9044 9037 9028 9015 9003 8993 8987 8986 8987 8987 8985 8980
1029.3192 8972 8963 8954 8946 8938 8932 8927 8923 8919 8914 8907 8897 8885
1035.5868 8871 8857 8843 8830 8817 8806 8796 8788 8780 8770 8758 8742 8723
1041.8542 8705 8689 8676 8667 8658 8650 8640 8629 8616 8603 8588 8573 8556
1048.1218 8535 8512 8488 8465 8445 8428 8413 8395 8375 8350 8323 8296 8271
1054.3893 8250 8231 8214 8195 8174 8151 8126 8103 8082 8064 8046 8026 8006
1060.6569 7984 7965 7949 7938 7929 7919 7907 7891 7873 7856 7841 7829 7820
1066.9243 7811 7802 7793 7787 7782 7778 7773 7763 7750 7733 7715 7700 7687
1073.1919 7675 7664 7652 7640 7629 7619 7611 7604 7596 7586 7573 7557 7540
1079.4594 7522 7504 7486 7468 7447 7424 7396 7364 7329 7292 7253 7212 7170
1085.7269 7125 7077 7027 6975 6922 6869 6813 6756 6697 6638 6582 6532 6490
1091.9944 6457 6432 6413 6400 6393 6393 6401 6420 6456 6513 6596 6707 6844
1098.2620 7000 7166 7332 7488 7629 7751 7852 7933 7996 8041 8071 8089 8098
1104.5294 8099 8093 8083 8068 8050 8030 8008 7984 7957 7928 7897 7864 7831
1110.7970 7798 7765 7730 7694 7656 7617 7579 7541 7504 7465 7425 7382 7336
1117.0645 7288 7238 7187 7136 7085 7035 6984 6933 6883 6832 6782 6733 6684
1123.3320 6636 6589 6541 6495 6450 6407 6366 6329 6295 6263 6235 6209 6185
1129.5995 6165 6150 6140 6138 6144 6159 6182 6212 6248 6288 6328 6365 6394
1135.8671 6410 6412 6396 6365 6319 6262 6197 6127 6056 5988 5925 5869 5820
1142.1345 5779 5745 5721 5711 5719 5748 5798 5868 5955 6058 6174 6299 6433
1148.4021 6572 6713 6855 6997 7136 7274 7411 7546 7682 7818 7955 8093 8232
1154.6696 8373 8514 8657 8801 8944 9083 9216 9339 9451 9550 9636 9712 9778
1160.9371 9838 9893 9942 9985 10022 10052 10078 10102 10125 10147 10168 10187
1166.7225 10204 10219 10233 10246 10256 10264 10269 10271 10271 10270 10268
1172.0258 10266 10263 10259 10254 10247 10239 10230 10222 10214 10207 10200
1177.3291 10192 10183 10174 10163 10152 10137 10118 10095 10066 10034 9998
1182.6323 9958 9911 9853 9776 9674 9546 9400 9254 9134 9068 9077 9162 9310
1188.8999 9489 9669 9825 9944 10026 10079 10111 10129 10140 10145 10148 10151
1194.6853 10152 10154 10154 10152 10147 10141 10135 10129 10125 10123 10122
1199.9885 10122 10120 10117 10112 10106 10099 10091 10084 10076 10069 10062
1205.2919 10057 10054 10052 10049 10045 10038 10029 10021 10013 10008 10005
1210.5951 10003 10000 9995 9988 9982 9976 9972 9969 9966 9961 9955 9948 9939
1216.8627 9931 9923 9917 9912 9909 9907 9906 9905 9902 9898 9891 9881 9871
1223.1301 9861 9852 9844 9837 9831 9824 9817 9810 9801 9793 9787 9783 9781
1229.3977 9778 9775 9768 9760 9750 9740 9730 9722 9714 9706 9700 9695 9691
1235.6652 9688 9684 9678 9671 9663 9655 9647 9640 9634 9628 9620 9613 9606
1241.9327 9600 9594 9589 9583 9576 9569 9562 9556 9552 9549 9547 9545 9544
1248.2002 9542 9542 9544 9547 9552 9558 9565 9573 9582 9593 9605 9619 9635
1254.4678 9654 9674 9693 9711 9726 9737 9746 9754 9761 9767 9773 9777 9776
1260.7352 9769 9754 9729 9696 9657 9613 9565 9516 9470 9435 9417 9418 9430
1267.0028 9436 9415 9356 9267 9170 9089 9040 9026 9042 9075 9110 9140 9158
1273.2703 9165 9162 9147 9121 9084 9037 8980 8914 8840 8759 8670 8575 8476
1279.5378 8375 8271 8166 8060 7954 7849 7745 7647 7556 7475 7407 7352 7310
1285.8053 7277 7250 7226 7199 7167 7127 7079 7022 6960 6896 6835 6783 6744
1292.0729 6722 6717 6732 6765 6814 6875 6946 7022 7098 7169 7229 7276 7306
1298.3403 7316 7304 7271 7216 7143 7057 6963 6868 6782 6714 6672 6667 6699
1304.6079 6764 6852 6945 7027 7088 7123 7135 7130 7114 7095 7078 7066 7061
1310.8754 7064 7078 7104 7142 7192 7253 7322 7396 7473 7554 7636 7719 7802
1317.1429 7884 7962 8037 8106 8169 8222 8264 8293 8311 8321 8325 8327 8332
1323.4104 8342 8361 8390 8431 8483 8547 8618 8696 8777 8857 8935 9008 9074
1329.6780 9129 9172 9204 9224 9234 9234 9225 9208 9184 9155 9122 9088 9053
1335.9454 9022 8996 8982 8980 8995 9026 9077 9147 9231 9321 9409 9489 9563
1342.2130 9630 9692 9750 9802 9847 9886 9920 9951 9978 10002 10023 10039 10051
1348.4805 10058 10063 10065 10067 10068 10071 10073 10076 10078 10078 10077
1353.7838 10074 10070 10066 10062 10057 10053 10050 10048 10046 10045 10043
1359.0870 10038 10032 10023 10014 10006 9997 9990 9982 9975 9969 9966 9965
1364.8724 9965 9967 9968 9969 9969 9968 9967 9967 9968 9969 9971 9973 9975
1371.1400 9977 9978 9980 9981 9981 9981 9980 9980 9980 9980 9980 9979 9976
1377.4075 9972 9967 9962 9958 9956 9954 9953 9952 9952 9951 9950 9949 9947
1383.6750 9945 9942 9939 9935 9931 9926 9919 9913 9907 9903 9900 9899 9898
1389.9425 9898 9898 9898 9897 9895 9892 9889 9888 9890 9896 9903 9908 9911
1396.2101 9910 9909 9909 9911 9915 9922 9929 9934 9935 9933 9930 9926 9922
1402.4775 9920 9918 9916 9914 9911 9908 9906 9905 9906 9906 9905 9902 9898
1408.7451 9893 9889 9885 9882 9880 9878 9877 9874 9871 9867 9862 9856 9849
1415.0126 9842 9835 9828 9822 9816 9809 9801 9792 9781 9773 9766 9762 9757
1421.2802 9752 9745 9737 9726 9711 9695 9677 9661 9648 9636 9625 9614 9602
1427.5476 9591 9580 9571 9563 9556 9549 9542 9534 9524 9514 9502 9489 9475
1433.8152 9461 9447 9433 9417 9397 9369 9334 9300 9274 9254 9240 9233 9236
1440.0826 9252 9281 9324 9375 9429 9481 9530 9573 9609 9640 9664 9682 9694
1446.3502 9702 9707 9710 9713 9715 9715 9713 9710 9707 9704 9701 9699 9697
1452.6177 9695 9693 9689 9684 9678 9672 9666 9662 9660 9662 9666 9669 9670
1458.8853 9670 9670 9668 9666 9663 9659 9655 9650 9643 9636 9629 9622 9616
1465.1527 9613 9610 9607 9602 9597 9592 9586 9581 9575 9569 9562 9553 9545
1471.4203 9536 9528 9522 9516 9511 9503 9495 9486 9476 9466 9456 9447 9438
1477.6877 9430 9419 9406 9390 9372 9354 9336 9320 9306 9292 9278 9262 9244
1483.9553 9225 9206 9187 9170 9153 9136 9117 9097 9076 9055 9033 9011 8989
1490.2228 8967 8947 8928 8907 8882 8853 8822 8791 8760 8729 8694 8651 8603
1496.4904 8555 8514 8475 8432 8377 8312 8243 8176 8110 8043 7970 7897 7833
1502.7578 7788 7764 7760 7769 7794 7851 7985 8265 8650 8934 9071 9146 9206
1509.0254 9263 9313 9355 9389 9419 9444 9467 9485 9496 9501 9499 9494 9487
1515.2928 9480 9474 9472 9472 9470 9464 9455 9443 9429 9412 9394 9378 9370
1521.5604 9375 9381 9381 9375 9366 9356 9343 9330 9317 9304 9292 9282 9271
1527.8279 9260 9249 9238 9227 9215 9202 9186 9170 9155 9142 9132 9126 9121
1534.0955 9113 9101 9086 9068 9047 9025 9003 8981 8959 8938 8920 8908 8902
1540.3629 8893 8875 8850 8821 8794 8773 8757 8747 8739 8733 8726 8718 8708
1546.6305 8696 8684 8670 8657 8646 8638 8637 8641 8646 8648 8645 8639 8632
1552.8979 8627 8626 8634 8648 8659 8663 8660 8652 8642 8631 8624 8633 8687
1559.1655 8761 8795 8801 8799 8793 8786 8778 8771 8765 8760 8758 8759 8759
1565.4330 8758 8752 8742 8729 8712 8691 8659 8607 8529 8443 8373 8329 8307
1571.7006 8301 8311 8334 8365 8396 8423 8443 8461 8481 8503 8518 8518 8505
1577.9680 8485 8461 8433 8401 8365 8324 8279 8229 8174 8117 8058 7998 7938
1584.2356 7878 7818 7757 7695 7630 7563 7494 7421 7345 7264 7177 7085 6986
1590.5032 6884 6783 6689 6607 6545 6509 6504 6534 6601 6701 6830 6981 7151
1596.7706 7338 7539 7748 7962 8174 8381 8579 8762 8928 9071 9191 9291 9375
1603.0382 9444 9500 9543 9575 9597 9612 9620 9624 9623 9619 9611 9600 9584
1609.3057 9564 9539 9509 9477 9443 9406 9367 9325 9281 9236 9192 9151 9109
1615.5732 9060 8993 8903 8809 8730 8664 8600 8529 8445 8351 8252 8156 8063
1621.8407 7969 7861 7729 7578 7434 7319 7231 7161 7100 7051 7019 7019 7060
1628.1083 7141 7246 7361 7484 7620 7774 7946 8127 8299 8450 8575 8680 8779
1634.3757 8894 9047 9235 9401 9504 9562 9605 9646 9686 9724 9756 9784 9810
1640.6433 9835 9860 9883 9902 9917 9928 9938 9946 9953 9960 9966 9970 9974
1646.9108 9980 9989 10001 10011 10019 10023 10025 10025 10023 10021 10018
1652.2141 10016 10016 10018 10020 10020 10020 10021 10021 10022 10022 10022
1657.5173 10021 10020 10018 10018 10018 10018 10017 10015 10013 10010 10009
1662.8207 10010 10013 10015 10017 10018 10019 10019 10018 10016 10014 10011
1668.1239 10008 10007 10011 10018 10025 10030 10033 10033 10032 10031 10029
1673.4272 10027 10026 10027 10030 10033 10035 10034 10031 10027 10023 10018
1678.7305 10015 10013 10014 10015 10016 10015 10014 10011 10008 10007 10011
1684.0338 10019 10024 10021 10015 10009 10004 9998 9994 9990 9987 9986 9985
1689.8192 9985 9986 9987 9989 9990 9990 9989 9986 9981 9975 9969 9963 9960
1696.0867 9962 9967 9972 9974 9975 9975 9971 9961 9948 9942 9947 9955 9960
1702.3542 9964 9965 9965 9965 9965 9966 9967 9967 9964 9960 9956 9953 9951
1708.6217 9951 9952 9954 9955 9956 9955 9954 9952 9950 9948 9946 9944 9942
1714.8893 9940 9938 9936 9933 9933 9936 9945 9955 9960 9961 9958 9953 9947
1721.1567 9941 9936 9931 9929 9928 9929 9930 9930 9929 9927 9925 9924 9923
1727.4243 9923 9922 9920 9917 9912 9907 9902 9897 9892 9887 9882 9877 9875
1733.6918 9879 9886 9892 9895 9895 9895 9893 9890 9886 9882 9878 9878 9882
1739.9594 9888 9891 9891 9887 9882 9877 9875 9876 9879 9881 9881 9879 9875
1746.2268 9870 9863 9857 9852 9851 9851 9854 9855 9856 9855 9854 9855 9857
1752.4944 9861 9864 9865 9866 9863 9858 9850 9842 9836 9835 9839 9847 9854
1758.7618 9858 9858 9854 9847 9839 9832 9828 9828 9831 9835 9837 9838 9838
1765.0294 9834 9829 9822 9816 9811 9810 9813 9816 9818 9818 9815 9812 9810
1771.2969 9810 9812 9816 9817 9816 9814 9810 9806 9802 9797 9793 9789 9788
1777.5645 9788 9790 9791 9792 9791 9788 9784 9780 9777 9775 9772 9768 9763
1783.8319 9757 9753 9752 9755 9762 9769 9776 9782 9785 9785 9784 9780 9776
1790.0995 9773 9770 9770 9772 9777 9782 9785 9786 9786 9784 9784 9785 9787
1796.3669 9789 9791 9791 9790 9788 9786 9786 9787 9789 9790 9791 9792 9791
1802.6345 9791 9791 9792 9794 9795 9795 9793 9790 9786 9783 9781 9782 9783
1808.9020 9784 9784 9783 9783 9783 9786 9788 9790 9790 9788 9785 9780 9775
1815.1696 9771 9767 9765 9765 9767 9772 9776 9780 9781 9779 9775 9770 9766
1821.4370 9764 9763 9764 9765 9766 9768 9772 9778 9785 9788 9785 9777 9766
1827.7046 9754 9742 9732 9726 9727 9732 9738 9742 9744 9746 9747 9748 9750
1833.9720 9753 9757 9760 9763 9766 9768 9769 9768 9765 9759 9754 9749 9747
1840.2396 9747 9747 9746 9742 9734 9725 9719 9718 9726 9737 9744 9745 9743
1846.5071 9740 9738 9736 9736 9737 9736 9736 9737 9738 9742 9747 9753 9758
1852.7747 9762 9762 9757 9750 9740 9732 9726 9723 9723 9724 9723 9720 9717
1859.0421 9715 9716 9722 9732 9742 9750 9753 9750 9744 9738 9734 9732 9732
1865.3097 9732 9729 9724 9718 9714 9712 9712 9713 9713 9712 9711 9708 9705
1871.5771 9701 9697 9692 9689 9686 9686 9688 9691 9696 9701 9705 9708 9709
1877.8447 9708 9705 9703 9704 9709 9717 9723 9724 9718 9705 9688 9673 9663
1884.1122 9662 9669 9679 9689 9696 9697 9695 9691 9687 9681 9674 9667 9661
1890.3798 9657 9655 9656 9658 9662 9664 9665 9663 9658 9650 9641 9633 9629
1896.6472 9629 9632 9636 9641 9644 9647 9649 9651 9655 9660 9666 9672 9674
1902.9148 9671 9662 9650 9638 9631 9631 9638 9648 9657 9662 9663 9663 9663
1909.1823 9666 9670 9672 9667 9655 9638 9621 9609 9606 9610 9617 9621 9617
1915.4498 9607 9593 9581 9577 9583 9598 9614 9625 9630 9631 9629 9628 9628
1921.7173 9629 9633 9638 9645 9654 9665 9673 9678 9677 9669 9656 9645 9639
1927.9849 9639 9644 9648 9650 9648 9646 9646 9651 9656 9657 9651 9637 9619
1934.2523 9600 9586 9578 9579 9588 9606 9631 9659 9682 9695 9696 9689 9680
1940.5199 9674 9674 9681 9691 9703 9715 9725 9734 9737 9731 9713 9685 9653
1946.7874 9626 9609 9603 9605 9609 9611 9611 9615 9627 9651 9683 9716 9740
1953.0549 9750 9744 9729 9714 9704 9700 9698 9693 9680 9660 9637 9616 9599
1959.3224 9585 9571 9557 9545 9543 9556 9583 9619 9650 9667 9667 9657 9646
1965.5900 9642 9647 9658 9667 9668 9661 9650 9641 9644 9664 9705 9759 9811
1971.8574 9842 9837 9793 9725 9656 9607 9585 9584 9587 9575 9539 9483 9421
1978.1250 9375 9358 9377 9423 9481 9536 9574 9592 9594 9586 9575 9566 9558
1984.3925 9551 9544 9541 9545 9557 9573 9585 9587 9576 9555 9532 9516 9509
1990.6600 9512 9522 9535 9550 9563 9574 9583 9590 9597 9606 9616 9627 9637
1996.9275 9643 9646 9647 9646 9644 9641 9637 9634 9633 9632 9627 9611 9582
2003.1951 9542 9499 9464 9445 9444 9456 9476 9494 9507 9511 9508 9502 9500
2009.4625 9509 9530 9561 9594 9623 9640 9646 9641 9628 9607 9584 9565 9557
2015.7301 9565 9585 9607 9620 9619 9608 9597 9592 9595 9605 9617 9624 9622
2021.9976 9607 9579 9544 9513 9498 9508 9536 9570 9595 9600 9586 9560 9532
2028.2651 9510 9498 9498 9512 9539 9573 9606 9629 9636 9632 9624 9623 9633
2034.5326 9652 9668 9673 9662 9638 9612 9592 9579 9572 9565 9558 9551 9546
2040.8002 9547 9553 9560 9569 9579 9592 9610 9630 9643 9645 9632 9608 9580
2047.0676 9561 9558 9573 9600 9629 9651 9661 9659 9652 9645 9643 9645 9646
2053.3352 9643 9634 9618 9598 9580 9568 9564 9568 9575 9582 9583 9576 9563
2059.6028 9549 9539 9534 9534 9538 9546 9557 9571 9586 9598 9604 9601 9589
2065.8701 9570 9547 9524 9507 9500 9507 9529 9560 9589 9608 9611 9601 9585
2072.1377 9571 9567 9572 9586 9605 9626 9645 9659 9663 9651 9624 9586 9546
2078.4053 9514 9500 9505 9526 9553 9577 9591 9594 9588 9579 9570 9563 9558
2084.6729 9554 9549 9541 9531 9520 9512 9509 9513 9523 9537 9549 9558 9563
2090.9402 9564 9564 9565 9569 9576 9586 9595 9603 9605 9602 9594 9584 9576
2097.2078 9570 9566 9562 9555 9548 9541 9535 9531 9527 9525 9525 9529 9538
2103.4753 9551 9564 9577 9589 9600 9611 9618 9616 9605 9586 9565 9549 9539
2109.7429 9535 9534 9532 9530 9528 9527 9527 9525 9518 9509 9501 9499 9506
2116.0103 9520 9538 9557 9572 9582 9586 9585 9576 9563 9546 9532 9523 9522
2122.2778 9527 9534 9540 9543 9545 9550 9561 9577 9594 9607 9612 9607 9595
2128.5454 9582 9572 9567 9565 9563 9558 9550 9540 9531 9524 9520 9517 9520
2134.8130 9532 9556 9588 9621 9641 9640 9620 9588 9554 9525 9500 9477 9458
2141.0803 9450 9461 9494 9544 9594 9628 9634 9618 9594 9578 9581 9606 9645
2147.3479 9686 9716 9725 9713 9684 9652 9630 9627 9642 9665 9677 9661 9613
2153.6155 9541 9469 9424 9430 9493 9604 9736 9853 9921 9925 9877 9804 9740
2159.8831 9698 9676 9663 9652 9638 9622 9600 9573 9541 9512 9497 9502 9522
2166.1504 9544 9555 9550 9537 9534 9554 9595 9646 9687 9705 9698 9679 9663
2172.4180 9659 9664 9668 9662 9642 9613 9585 9571 9573 9589 9612 9633 9643
2178.6855 9641 9630 9616 9606 9602 9604 9607 9606 9600 9593 9586 9579 9569
2184.9531 9554 9537 9523 9519 9523 9531 9540 9550 9565 9591 9628 9665 9687
2191.2205 9680 9643 9587 9534 9504 9507 9539 9584 9619 9630 9613 9577 9538
2197.4880 9510 9499 9501 9509 9516 9518 9515 9508 9499 9486 9471 9460 9461
2203.7556 9476 9505 9542 9575 9597 9606 9606 9604 9605 9608 9610 9604 9587
2210.0232 9559 9527 9502 9489 9492 9507 9527 9545 9556 9559 9556 9552 9550
2216.2905 9550 9550 9552 9556 9566 9582 9601 9618 9625 9617 9597 9572 9549
2222.5581 9537 9537 9546 9560 9574 9584 9587 9581 9564 9539 9513 9495 9490
2228.8257 9499 9516 9533 9542 9541 9529 9514 9500 9491 9491 9497 9507 9517
2235.0933 9525 9534 9545 9558 9568 9570 9557 9531 9500 9474 9460 9459 9465
2241.3606 9471 9474 9476 9479 9487 9497 9508 9516 9522 9527 9532 9536 9539
2247.6282 9540 9539 9537 9538 9543 9550 9558 9561 9557 9548 9534 9521 9510
2253.8958 9505 9504 9504 9503 9503 9503 9507 9514 9522 9528 9529 9525 9518
2260.1633 9514 9516 9525 9541 9557 9569 9573 9566 9553 9538 9528 9524 9526
2266.4307 9530 9532 9531 9527 9522 9518 9515 9514 9512 9509 9505 9502 9499
2272.6982 9499 9501 9505 9508 9510 9507 9501 9491 9482 9475 9472 9473 9477
2278.9658 9482 9484 9483 9479 9473 9466 9460 9456 9457 9461 9468 9475 9480
2285.2334 9482 9482 9483 9484 9486 9489 9489 9488 9486 9483 9480 9477 9474
2291.5007 9472 9473 9478 9485 9491 9494 9493 9488 9482 9477 9475 9475 9476
2297.7683 9477 9476 9475 9474 9474 9474 9475 9474 9472 9468 9462 9456 9450
2304.0359 9447 9445 9445 9445 9446 9446 9447 9449 9453 9457 9460 9460 9455
2310.3035 9447 9439 9434 9434 9439 9447 9455 9460 9462 9459 9452 9444 9437
2316.5708 9432 9430 9433 9437 9441 9441 9436 9427 9416 9406 9400 9400 9404
2322.8384 9410 9415 9416 9413 9406 9400 9397 9400 9408 9419 9430 9438 9442
2329.1060 9440 9435 9430 9426 9426 9431 9440 9451 9459 9460 9453 9439 9422
2335.3735 9408 9401 9400 9403 9404 9400 9394 9387 9385 9387 9394 9402 9410
2341.6409 9417 9426 9435 9445 9452 9455 9451 9445 9439 9433 9429 9425 9420
2347.9084 9414 9408 9403 9399 9397 9397 9399 9404 9411 9419 9424 9423 9414
2354.1760 9398 9381 9368 9366 9376 9396 9420 9442 9457 9459 9447 9426 9402
2360.4436 9382 9370 9369 9373 9379 9383 9386 9388 9393 9398 9404 9407 9408
2366.7109 9411 9416 9427 9439 9449 9453 9447 9434 9418 9402 9392 9388 9389
2372.9785 9393 9399 9407 9418 9429 9438 9443 9441 9433 9423 9413 9406 9402
2379.2461 9402 9402 9403 9403 9404 9405 9406 9405 9403 9398 9392 9388 9386
2385.5137 9387 9391 9396 9400 9403 9403 9402 9400 9397 9394 9390 9386 9382
2391.7810 9377 9373 9372 9372 9374 9377 9379 9380 9379 9378 9377 9376 9376
2398.0486 9377 9379 9381 9383 9384 9384 9382 9378 9374 9372 9372 9375 9380
2404.3162 9385 9388 9387 9385 9383 9382 9384 9388 9394 9400 9403 9405 9403
2410.5837 9400 9394 9389 9385 9384 9385 9388 9390 9390 9388 9386 9383 9383
2416.8511 9382 9382 9380 9376 9373 9371 9372 9377 9383 9388 9390 9388 9386
2423.1187 9384 9384 9385 9385 9384 9379 9374 9369 9368 9370 9374 9379 9383
2429.3862 9385 9387 9387 9386 9382 9375 9366 9358 9353 9352 9356 9361 9366
2435.6538 9370 9370 9369 9369 9368 9368 9368 9367 9365 9363 9361 9361 9363
2441.9211 9366 9371 9375 9379 9381 9378 9371 9364 9358 9357 9362 9371 9380
2448.1887 9386 9387 9384 9380 9375 9373 9372 9372 9373 9375 9376 9378 9379
2454.4563 9379 9377 9375 9373 9371 9370 9370 9369 9369 9368 9369 9371 9374
2460.7239 9378 9381 9381 9379 9374 9371 9370 9374 9381 9388 9395 9397 9396
2466.9912 9392 9386 9380 9374 9369 9366 9364 9363 9362 9362 9362 9364 9368
2473.2588 9374 9382 9389 9392 9392 9388 9381 9374 9368 9364 9363 9363 9365
2479.5264 9366 9368 9370 9374 9378 9382 9386 9387 9386 9383 9381 9379 9379
2485.7939 9380 9380 9378 9375 9370 9364 9359 9357 9358 9363 9369 9374 9376
2492.0613 9376 9373 9371 9369 9370 9373 9375 9377 9377 9377 9378 9378 9379
2498.3289 9378 9375 9371 9367 9364 9364 9367 9370 9373 9373 9371 9368 9365
2504.5964 9363 9362 9363 9365 9368 9371 9373 9373 9370 9363 9355 9348 9345
2510.8640 9349 9359 9372 9384 9391 9392 9387 9381 9374 9370 9369 9369 9372
2517.1313 9376 9380 9384 9387 9389 9389 9389 9387 9386 9383 9377 9370 9363
2523.3989 9356 9351 9348 9347 9345 9343 9342 9341 9342 9345 9349 9353 9357
2529.6665 9361 9364 9369 9373 9377 9379 9379 9377 9374 9369 9364 9359 9354
2535.9341 9352 9352 9354 9358 9360 9361 9360 9358 9356 9354 9354 9355 9356
2542.2014 9357 9357 9357 9356 9354 9351 9349 9348 9349 9351 9355 9357 9358
2548.4690 9356 9352 9349 9347 9348 9350 9353 9354 9354 9351 9347 9342 9339
2554.7366 9336 9336 9339 9343 9349 9356 9363 9367 9370 9369 9366 9362 9356
2561.0042 9349 9341 9334 9328 9325 9326 9330 9337 9345 9352 9356 9357 9356
2567.2715 9353 9349 9346 9343 9341 9340 9341 9343 9348 9355 9361 9366 9368
2573.5391 9365 9360 9354 9350 9347 9347 9347 9348 9348 9347 9346 9345 9342
2579.8066 9339 9336 9333 9333 9334 9336 9339 9339 9339 9337 9335 9333 9332
2586.0742 9329 9325 9321 9317 9314 9313 9314 9316 9318 9319 9319 9318 9316
2592.3418 9313 9308 9302 9295 9290 9287 9287 9289 9290 9290 9286 9281 9277
2598.6091 9277 9281 9289 9297 9302 9304 9302 9298 9293 9287 9280 9274 9268
2604.8767 9266 9267 9273 9282 9292 9299 9303 9304 9303 9300 9296 9293 9290
2611.1443 9289 9288 9290 9291 9292 9292 9289 9285 9281 9278 9276 9275 9274
2617.4119 9274 9273 9273 9274 9276 9278 9281 9284 9286 9285 9282 9276 9270
2623.6792 9264 9260 9259 9259 9261 9262 9262 9262 9262 9262 9261 9260 9258
2629.9468 9256 9253 9252 9252 9251 9251 9250 9249 9247 9245 9242 9239 9236
2636.2144 9232 9230 9229 9229 9230 9231 9232 9233 9235 9237 9239 9243 9246
2642.4819 9249 9250 9251 9252 9253 9255 9258 9261 9265 9268 9271 9273 9275
2648.7493 9276 9276 9275 9276 9276 9277 9277 9276 9274 9272 9272 9272 9272
2655.0168 9272 9271 9269 9268 9267 9268 9270 9273 9274 9274 9273 9271 9269
2661.2844 9266 9264 9261 9257 9254 9251 9249 9249 9250 9251 9253 9253 9253
2667.5520 9251 9249 9247 9244 9242 9240 9239 9240 9242 9244 9247 9248 9248
2673.8193 9247 9244 9241 9239 9238 9239 9242 9246 9250 9253 9256 9258 9259
2680.0869 9260 9262 9263 9264 9265 9265 9265 9265 9267 9270 9274 9278 9281
2686.3545 9283 9284 9285 9286 9287 9288 9290 9292 9294 9296 9298 9301 9303
2692.6221 9304 9305 9306 9306 9307 9309 9311 9313 9315 9315 9315 9314 9313
2698.8894 9312 9312 9313 9314 9317 9320 9323 9325 9325 9324 9322 9320 9318
2705.1570 9317 9318 9320 9323 9327 9330 9332 9331 9329 9327 9327 9328 9331
2711.4246 9334 9336 9337 9335 9332 9328 9324 9321 9317 9314 9312 9311 9312
2717.6921 9313 9314 9315 9316 9316 9316 9317 9319 9321 9323 9324 9324 9324
2723.9595 9323 9322 9320 9318 9316 9315 9314 9313 9314 9314 9314 9314 9313
2730.2271 9311 9310 9309 9309 9310 9312 9314 9316 9315 9314 9311 9308 9306
2736.4946 9306 9307 9309 9311 9313 9313 9312 9310 9308 9307 9307 9308 9309
2742.7622 9310 9310 9310 9309 9308 9307 9306 9306 9306 9305 9304 9303 9302
2749.0295 9301 9300 9301 9301 9301 9301 9300 9300 9300 9300 9301 9301 9301
2755.2971 9302 9302 9302 9302 9301 9301 9300 9298 9297 9295 9294 9293 9293
2761.5647 9293 9293 9293 9293 9293 9293 9293 9293 9293 9294 9295 9298 9301
2767.8323 9304 9307 9309 9310 9310 9309 9307 9305 9303 9302 9301 9300 9301
2774.0996 9301 9302 9303 9303 9304 9304 9304 9303 9300 9298 9296 9296 9296
2780.3672 9298 9299 9301 9303 9303 9304 9303 9302 9301 9300 9301 9302 9303
2786.6348 9304 9304 9304 9304 9304 9303 9302 9300 9298 9297 9297 9297 9299
2792.9023 9300 9302 9303 9305 9306 9306 9306 9305 9304 9302 9301 9299 9297
2799.1697 9296 9296 9295 9295 9295 9294 9293 9292 9291 9292 9294 9296 9297
2805.4373 9296 9294 9291 9288 9286 9286 9287 9288 9288 9288 9287 9286 9284
2811.7048 9283 9282 9282 9284 9285 9286 9286 9284 9281 9279 9276 9275 9275
2817.9724 9275 9275 9275 9275 9274 9273 9271 9270 9270 9270 9271 9273 9276
2824.2397 9279 9283 9287 9290 9291 9289 9286 9282 9278 9275 9273 9272 9272
2830.5073 9272 9274 9275 9276 9275 9273 9270 9267 9266 9267 9270 9272 9275
2836.7749 9277 9278 9280 9281 9282 9283 9284 9284 9284 9282 9279 9274 9270
2843.0425 9267 9266 9269 9273 9277 9280 9281 9280 9278 9276 9275 9275 9276
2849.3098 9278 9279 9280 9280 9279 9278 9275 9273 9271 9269 9269 9269 9269
2855.5774 9269 9270 9270 9271 9271 9271 9270 9268 9265 9261 9258 9258 9260
2861.8450 9263 9266 9268 9267 9264 9262 9261 9261 9262 9263 9262 9260 9257
2868.1125 9255 9254 9255 9258 9262 9264 9265 9264 9262 9259 9257 9256 9256
2874.3799 9256 9256 9256 9258 9261 9265 9269 9271 9271 9267 9262 9257 9254
2880.6475 9253 9255 9258 9260 9261 9260 9259 9256 9254 9252 9251 9250 9250
2886.9150 9249 9248 9245 9243 9242 9243 9246 9249 9251 9251 9248 9244 9239
2893.1826 9236 9234 9233 9233 9233 9234 9236 9237 9238 9238 9237 9236 9234
2899.4500 9233 9234 9236 9239 9244 9248 9251 9253 9253 9252 9250 9247 9244
2905.7175 9241 9239 9237 9236 9237 9238 9240 9243 9245 9248 9251 9253 9255
2911.9851 9254 9253 9250 9246 9241 9236 9232 9230 9230 9233 9236 9239 9239
2918.2527 9237 9233 9230 9228 9228 9228 9227 9227 9226 9227 9229 9232 9234
2924.5200 9236 9237 9238 9237 9237 9235 9233 9231 9229 9227 9226 9225 9225
2930.7876 9225 9224 9224 9224 9223 9223 9221 9220 9218 9216 9216 9217 9219
2937.0552 9222 9225 9226 9226 9223 9221 9218 9217 9217 9217 9216 9214 9211
2943.3228 9209 9206 9205 9204 9205 9206 9208 9209 9211 9212 9213 9213 9213
2949.5901 9212 9210 9208 9207 9207 9209 9213 9217 9221 9225 9227 9228 9227
2955.8577 9224 9220 9216 9213 9211 9211 9212 9213 9215 9217 9218 9219 9220
2962.1252 9220 9219 9216 9212 9207 9204 9203 9204 9208 9213 9218 9222 9224
2968.3928 9226 9226 9226 9225 9224 9224 9224 9225 9226 9227 9227 9227 9228
2974.6602 9229 9231 9232 9232 9231 9231 9230 9231 9234 9236 9239 9241 9241
2980.9277 9240 9238 9236 9236 9238 9241 9245 9250 9253 9256 9257 9257 9256
2987.1953 9255 9253 9251 9249 9246 9245 9243 9242 9241 9240 9237 9233 9228
2993.4629 9223 9219 9216 9214 9212 9212 9212 9211 9209 9207 9205 9204 9205
2999.7302 9208 9213 9220 9227 9232 9235 9236 9234 9231 9228 9227 9227 9228
3005.9978 9231 9233 9234 9234 9232 9228 9224 9220 9217 9217 9217 9217 9217
3012.2654 9216 9214 9214 9214 9216 9218 9219 9218 9215 9212 9210 9209 9209
3018.5330 9210 9209 9207 9204 9200 9197 9195 9193 9192 9190 9187 9183 9179
3024.8003 9175 9172 9170 9171 9173 9175 9178 9180 9180 9180 9178 9175 9171
3031.0679 9166 9160 9154 9149 9145 9143 9143 9143 9143 9142 9139 9135 9131
3037.3354 9129 9127 9126 9127 9128 9129 9131 9133 9135 9135 9133 9128 9122
3043.6030 9115 9110 9107 9106 9106 9106 9105 9102 9099 9095 9093 9091 9090
3049.8704 9091 9092 9092 9092 9091 9088 9086 9083 9080 9077 9074 9071 9069
3056.1379 9068 9070 9072 9074 9076 9077 9076 9074 9071 9066 9061 9056 9051
3062.4055 9046 9041 9035 9031 9029 9030 9033 9038 9042 9044 9042 9037 9029
3068.6731 9022 9017 9017 9021 9029 9038 9047 9054 9057 9058 9058 9057 9057
3074.9404 9057 9058 9060 9062 9064 9065 9064 9062 9057 9052 9047 9043 9042
3081.2080 9044 9047 9051 9054 9055 9053 9049 9043 9037 9033 9030 9028 9025
3087.4756 9021 9017 9011 9007 9002 8999 8995 8991 8988 8987 8987 8988 8990
3093.7432 8992 8995 8999 9003 9008 9013 9017 9019 9019 9017 9013 9009 9004
3100.0105 9000 8997 8995 8995 8997 9000 9004 9008 9010 9011 9011 9008 9005
3106.2781 9000 8996 8994 8994 8996 9000 9003 9006 9009 9010 9011 9011 9010
3112.5457 9007 9003 9000 8999 9001 9005 9008 9011 9010 9008 9006 9004 9003
3118.8132 9003 9004 9005 9005 9005 9004 9002 8999 8996 8994 8994 8996 8997
3125.0806 8998 8995 8991 8985 8981 8980 8981 8983 8984 8983 8980 8975 8971
3131.3481 8968 8967 8967 8968 8968 8968 8968 8969 8968 8968 8966 8965 8964
3137.6157 8963 8962 8961 8960 8959 8958 8959 8962 8964 8967 8968 8967 8967
3143.8833 8967 8967 8968 8968 8967 8966 8965 8964 8963 8964 8964 8963 8961
3150.1506 8959 8955 8952 8950 8949 8950 8950 8949 8946 8942 8937 8935 8936
3156.4182 8939 8943 8946 8946 8944 8940 8937 8934 8933 8932 8931 8929 8927
3162.6858 8925 8923 8921 8918 8916 8914 8913 8912 8910 8907 8903 8898 8894
3168.9534 8892 8893 8896 8900 8902 8903 8900 8896 8891 8886 8880 8875 8871
3175.2207 8868 8865 8864 8863 8861 8859 8857 8853 8850 8846 8844 8842 8841
3181.4883 8840 8840 8840 8839 8836 8832 8827 8823 8819 8818 8819 8821 8823
3187.7559 8825 8825 8823 8818 8810 8802 8795 8789 8785 8783 8783 8782 8781
3194.0234 8778 8774 8769 8763 8756 8747 8738 8729 8722 8718 8717 8719 8722
3200.2908 8725 8726 8722 8713 8701 8688 8677 8667 8661 8656 8652 8647 8641
3206.5583 8633 8624 8614 8604 8595 8587 8580 8572 8561 8548 8533 8518 8505
3212.8259 8494 8486 8480 8475 8472 8470 8470 8473 8479 8487 8496 8508 8519
3219.0935 8529 8535 8537 8534 8530 8525 8523 8524 8528 8531 8534 8533 8529
3225.3608 8523 8515 8506 8495 8485 8475 8464 8454 8444 8433 8421 8408 8397
3231.6284 8388 8381 8375 8368 8358 8344 8327 8309 8293 8280 8269 8260 8252
3237.8960 8244 8238 8234 8233 8233 8235 8235 8234 8232 8230 8226 8221 8214
3244.1636 8206 8198 8189 8181 8172 8163 8153 8141 8129 8116 8104 8093 8082
3250.4309 8070 8057 8041 8024 8005 7984 7964 7944 7926 7910 7895 7881 7866
3256.6985 7849 7831 7813 7795 7779 7763 7748 7734 7722 7713 7710 7710 7714
3262.9661 7719 7722 7723 7722 7719 7716 7716 7720 7729 7745 7765 7788 7812
3269.2336 7835 7858 7879 7900 7922 7946 7973 8004 8037 8072 8108 8143 8176
3275.5010 8206 8234 8258 8281 8304 8328 8355 8384 8413 8442 8467 8490 8512
3281.7686 8534 8556 8579 8601 8622 8639 8655 8671 8687 8704 8721 8736 8750
3288.0361 8760 8766 8770 8774 8778 8784 8792 8801 8808 8813 8815 8818 8820
3294.3037 8822 8824 8823 8819 8814 8808 8804 8804 8808 8813 8819 8822 8822
3300.5710 8817 8811 8804 8799 8796 8794 8792 8788 8781 8774 8766 8759 8755
3306.8386 8752 8752 8751 8750 8749 8746 8743 8739 8734 8727 8720 8712 8705
3313.1062 8698 8693 8687 8681 8674 8667 8661 8657 8654 8653 8651 8648 8643
3319.3738 8636 8628 8621 8614 8607 8599 8591 8581 8572 8566 8562 8560 8558
3325.6411 8553 8546 8536 8527 8520 8516 8513 8510 8505 8497 8485 8473 8461
3331.9087 8451 8443 8436 8431 8424 8416 8405 8391 8377 8363 8353 8346 8341
3338.1763 8335 8326 8313 8297 8280 8264 8251 8240 8231 8221 8211 8199 8186
3344.4438 8171 8156 8139 8120 8101 8082 8064 8049 8037 8025 8014 8003 7991
3350.7112 7980 7969 7958 7944 7927 7909 7889 7870 7855 7841 7830 7819 7807
3356.9788 7794 7779 7764 7750 7739 7729 7721 7713 7704 7693 7679 7664 7648
3363.2463 7630 7610 7591 7571 7553 7538 7524 7510 7497 7483 7469 7456 7444
3369.5139 7434 7425 7416 7408 7400 7394 7391 7394 7405 7425 7458 7503 7562
3375.7813 7633 7715 7806 7904 8009 8117 8224 8327 8423 8511 8590 8662 8729
3382.0488 8792 8850 8904 8953 8997 9037 9073 9108 9140 9171 9201 9228 9253
3388.3164 9276 9297 9317 9335 9352 9367 9381 9393 9405 9419 9432 9446 9457
3394.5840 9465 9471 9476 9481 9489 9499 9511 9522 9531 9536 9537 9535 9532
3400.8513 9530 9529 9530 9531 9532 9532 9531 9532 9533 9535 9535 9533 9528
3407.1189 9523 9520 9521 9524 9530 9535 9537 9535 9531 9524 9518 9513 9512
3413.3865 9513 9514 9514 9513 9509 9505 9500 9496 9493 9491 9489 9486 9483
3419.6541 9482 9481 9481 9482 9482 9480 9478 9474 9470 9466 9461 9455 9448
3425.9214 9440 9433 9427 9425 9427 9432 9437 9440 9441 9438 9433 9427 9420
3432.1890 9413 9407 9402 9398 9395 9392 9389 9386 9382 9377 9373 9370 9366
3438.4565 9363 9359 9355 9352 9350 9349 9348 9348 9347 9345 9342 9336 9327
3444.7241 9317 9307 9299 9293 9289 9286 9282 9276 9269 9263 9258 9255 9251
3450.9915 9246 9239 9230 9220 9208 9197 9186 9178 9171 9167 9163 9159 9152
3457.2590 9143 9131 9117 9102 9087 9070 9052 9031 9009 8985 8962 8940 8918
3463.5266 8894 8867 8838 8806 8773 8737 8699 8657 8609 8558 8502 8445 8387
3469.7942 8329 8269 8208 8147 8085 8024 7964 7906 7852 7803 7764 7736 7721
3476.0615 7720 7735 7766 7817 7889 7982 8091 8214 8345 8480 8615 8747 8868
3482.3291 8974 9061 9130 9185 9231 9271 9309 9344 9377 9406 9430 9449 9462
3488.5967 9472 9480 9488 9497 9505 9512 9519 9524 9529 9532 9533 9533 9532
3494.8643 9531 9530 9529 9528 9528 9528 9530 9534 9538 9542 9542 9538 9533
3501.1316 9527 9524 9522 9523 9523 9524 9524 9524 9524 9522 9518 9514 9510
3507.3992 9509 9511 9515 9518 9518 9514 9508 9501 9497 9497 9499 9503 9508
3513.6667 9511 9514 9516 9517 9517 9516 9513 9510 9508 9508 9511 9514 9515
3519.9343 9512 9505 9493 9480 9471 9467 9471 9479 9488 9495 9496 9493 9488
3526.2017 9482 9477 9474 9474 9474 9475 9476 9477 9477 9476 9474 9471 9467
3532.4692 9462 9458 9455 9455 9456 9458 9461 9464 9466 9467 9468 9470 9472
3538.7368 9475 9477 9478 9476 9473 9468 9463 9458 9456 9455 9457 9459 9462
3545.0044 9464 9466 9467 9469 9470 9470 9469 9467 9464 9463 9462 9464 9466
3551.2717 9466 9462 9455 9447 9442 9442 9445 9449 9453 9456 9456 9455 9454
3557.5393 9453 9450 9445 9439 9435 9433 9436 9442 9448 9451 9450 9444 9437
3563.8069 9431 9426 9423 9421 9420 9421 9423 9427 9432 9435 9438 9439 9440
3570.0745 9441 9442 9443 9443 9441 9439 9436 9433 9431 9428 9426 9422 9417
3576.3420 9412 9407 9404 9405 9410 9418 9427 9434 9438 9440 9439 9437 9436
3582.6094 9435 9433 9427 9419 9407 9395 9386 9382 9386 9398 9413 9427 9437
3588.8770 9442 9443 9441 9437 9432 9428 9425 9423 9419 9413 9402 9390 9379
3595.1445 9373 9373 9379 9387 9394 9398 9400 9399 9399 9400 9402 9406 9409
3601.4121 9410 9410 9408 9406 9404 9401 9398 9394 9390 9386 9382 9382 9385
3607.6794 9393 9404 9416 9423 9423 9418 9408 9398 9389 9383 9381 9381 9382
3613.9470 9382 9382 9383 9385 9388 9393 9399 9407 9415 9423 9428 9428 9423
3620.2146 9414 9403 9393 9385 9382 9383 9390 9401 9414 9425 9432 9434 9430
3626.4822 9420 9407 9392 9379 9372 9378 9389 9396 9399 9398 9397 9398 9402
3632.7495 9408 9412 9410 9401 9387 9375 9366 9364 9368 9376 9384 9389 9390
3639.0171 9389 9388 9389 9393 9399 9404 9406 9406 9402 9397 9390 9382 9374
3645.2847 9367 9362 9361 9364 9369 9373 9378 9384 9396 9411 9423 9425 9419
3651.5522 9410 9400 9390 9380 9369 9358 9350 9347 9353 9366 9379 9384 9380
3657.8196 9374 9370 9369 9373 9377 9379 9377 9372 9365 9359 9353 9349 9348
3664.0872 9349 9353 9357 9360 9358 9352 9342 9330 9318 9311 9309 9314 9324
3670.3547 9337 9348 9354 9357 9356 9354 9351 9349 9347 9344 9341 9339 9340
3676.6223 9343 9349 9355 9363 9369 9373 9375 9373 9370 9366 9364 9362 9362
3682.8896 9363 9365 9367 9368 9368 9366 9361 9356 9350 9345 9345 9348 9352
3689.1572 9355 9358 9364 9372 9382 9388 9390 9386 9379 9371 9363 9357 9353
3695.4248 9352 9352 9352 9352 9350 9347 9342 9337 9334 9335 9342 9353 9366
3701.6924 9374 9372 9363 9352 9343 9340 9343 9348 9353 9353 9348 9338 9327
3707.9597 9318 9313 9312 9312 9311 9311 9316 9329 9349 9366 9374 9373 9367
3714.2273 9359 9352 9347 9344 9343 9344 9347 9351 9356 9359 9356 9348 9337
3720.4949 9327 9321 9320 9323 9326 9325 9323 9320 9320 9325 9332 9341 9348
3726.7625 9351 9350 9347 9340 9330 9318 9306 9296 9293 9301 9317 9335 9346
3733.0298 9350 9349 9350 9354 9359 9359 9351 9339 9330 9326 9326 9329 9331
3739.2974 9333 9332 9331 9327 9320 9309 9294 9279 9271 9287 9340 9402 9429
3745.5649 9423 9403 9380 9357 9337 9319 9305 9296 9292 9291 9293 9299 9313
3751.8325 9333 9350 9357 9354 9346 9338 9332 9332 9336 9341 9342 9337 9327
3758.0999 9316 9309 9309 9316 9326 9333 9336 9337 9336 9333 9329 9322 9315
3764.3674 9310 9307 9308 9310 9312 9311 9308 9304 9303 9306 9315 9328 9339
3770.6350 9345 9347 9345 9341 9337 9333 9328 9324 9321 9320 9321 9322 9321
3776.9026 9318 9312 9308 9307 9312 9320 9326 9328 9326 9322 9320 9320 9324
3783.1699 9330 9336 9341 9343 9343 9341 9336 9329 9322 9314 9309 9309 9312
3789.4375 9319 9327 9334 9339 9341 9340 9338 9334 9328 9321 9314 9308 9307
3795.7051 9313 9323 9333 9337 9333 9324 9311 9298 9287 9282 9288 9307 9330
3801.9727 9344 9346 9343 9336 9328 9320 9310 9301 9296 9298 9308 9319 9325
3808.2400 9326 9324 9320 9316 9314 9312 9311 9311 9311 9308 9302 9292 9279
3814.5076 9265 9257 9263 9283 9303 9312 9310 9301 9286 9269 9253 9244 9250
3820.7751 9277 9311 9334 9343 9342 9337 9329 9321 9312 9302 9293 9286 9283
3827.0427 9287 9294 9301 9303 9301 9295 9288 9285 9288 9295 9302 9302 9297
3833.3101 9287 9277 9270 9266 9265 9267 9274 9287 9306 9327 9337 9333 9318
3839.5776 9301 9289 9282 9281 9281 9282 9285 9292 9302 9311 9315 9311 9303
3845.8452 9292 9281 9273 9269 9268 9270 9274 9278 9280 9280 9278 9274 9272
3852.1128 9276 9288 9305 9314 9312 9303 9295 9290 9288 9290 9294 9297 9297
3858.3801 9294 9290 9286 9285 9288 9296 9305 9310 9309 9301 9290 9280 9278
3864.6477 9285 9298 9308 9311 9307 9299 9288 9276 9265 9261 9268 9283 9294
3870.9153 9297 9293 9286 9277 9271 9270 9277 9286 9292 9293 9290 9286 9283
3877.1829 9279 9275 9271 9267 9266 9270 9280 9292 9301 9305 9303 9297 9288
3883.4502 9275 9261 9250 9248 9258 9276 9292 9302 9304 9302 9298 9295 9292
3889.7178 9292 9294 9300 9306 9309 9308 9304 9299 9295 9291 9288 9286 9282
3895.9854 9278 9274 9272 9272 9278 9289 9300 9308 9308 9303 9296 9289 9286
3902.2529 9286 9288 9289 9291 9294 9299 9305 9311 9315 9314 9309 9303 9296
3908.5203 9293 9292 9295 9299 9301 9301 9300 9297 9295 9293 9290 9286 9282
3914.7878 9277 9274 9274 9277 9282 9287 9288 9289 9289 9292 9296 9301 9303
3921.0554 9301 9295 9286 9278 9273 9275 9283 9293 9300 9300 9294 9284 9276
3927.3230 9270 9270 9274 9279 9282 9282 9278 9274 9271 9272 9277 9283 9289
3933.5903 9294 9297 9299 9300 9301 9300 9298 9294 9290 9286 9284 9283 9282
3939.8579 9280 9277 9274 9274 9278 9286 9295 9301 9302 9300 9296 9293 9291
3946.1255 9290 9290 9289 9286 9282 9277 9272 9271 9272 9278 9284 9289 9293
3952.3931 9294 9293 9290 9288 9286 9285 9286 9289 9294 9299 9304 9306 9304
3958.6604 9298 9289 9280 9273 9269 9269 9272 9275 9277 9278 9279 9280 9282
3964.9280 9284 9286 9286 9285 9284 9286 9288 9291 9291 9289 9285 9281 9280
3971.1956 9281 9285 9289 9290 9289 9287 9284 9282 9281 9282 9282 9280 9278
3977.4631 9275 9273 9273 9275 9280 9285 9290 9292 9293 9291 9288 9284 9279
3983.7305 9276 9274 9274 9276 9280 9284 9288 9289 9289 9287 9283 9277 9272
3989.9980 9268 9265 9265 9267 9270 9273 9275 9275 9273 9271 9269 9268 9268
3996.2656 9270 9271 9273 9273 9274 9274 9274 9273 9271
##END= 
