##TITLE= bkg
##JCAMP-DX= 4.24
##DATA TYPE= INFRARED SPECTRUM
##ORIGIN= JASCO
##OWNER= 
##DATE= 22/03/31
##TIME= 09:39:28
##SPECTROMETER/DATA SYSTEM= 
##RESOLUTION= 
##DELTAX=   0.48211674
##XUNITS= 1/CM
##YUNITS= ARBITRARY UNITS
##XFACTOR= 1.00000
##YFACTOR= 1E-006
##FIRSTX=   599.7532
##LASTX=  4000.1226
##NPOINTS=     7054
##FIRSTY=      1.08820
##MAXY=      9.93656
##MINY=      0.26680
##XYDATA= (X++(Y..Y))
599.7532 1088199 1093430 1104714 1119242 1133143 1143418 1149321 1152345
603.6102 1154949 1158950 1164616 1170875 1176267 1179863 1181643 1182291
607.4671 1182754 1183902 1186367 1190480 1196221 1203192 1210735 1218180
611.3240 1225112 1231481 1237443 1242979 1247497 1249670 1247711 1240103
615.1810 1226589 1208962 1191153 1178303 1175008 1183428 1202207 1226886
619.0379 1251705 1271976 1285770 1294089 1299530 1304336 1309014 1312297
622.8948 1312329 1308228 1301062 1293648 1289373 1290690 1298073 1309878
626.7518 1323124 1334774 1342919 1347346 1349253 1350311 1351636 1353247
630.6087 1354313 1353910 1351715 1348133 1343834 1339184 1334108 1328545
634.4656 1323088 1319198 1318647 1322479 1330173 1339615 1347947 1352799
638.3226 1353217 1349856 1344451 1338968 1334850 1332629 1331939 1331825
642.1795 1331215 1329407 1326396 1322876 1319840 1317913 1316764 1314988
646.0364 1310683 1302518 1290728 1277413 1265839 1259064 1258604 1263853
649.8934 1272523 1281741 1289190 1293738 1295458 1295211 1294130 1293219
653.7503 1293173 1294404 1297153 1301564 1307583 1314768 1322251 1329064
657.6072 1334724 1339638 1344914 1351624 1360085 1369728 1379609 1388998
661.4642 1397605 1405599 1413987 1425257 1442952 1468558 1496001 1507330
665.3211 1474828 1372292 1191824 956582 719614 545947 485594 551834 716797
669.6602 926235 1124256 1274113 1365507 1408299 1420060 1416073 1405857
673.5171 1394691 1386039 1382212 1383500 1387691 1391161 1391010 1386674
677.3740 1379935 1373517 1369373 1367749 1367416 1366758 1365007 1362988
681.2310 1362918 1367322 1377560 1392800 1410103 1425689 1436681 1442301
685.0879 1443842 1443531 1443134 1443224 1443540 1444055 1445895 1451360
688.9448 1462892 1481543 1505862 1531933 1554703 1570009 1576337 1575415
692.8018 1571356 1568783 1570923 1578607 1590635 1605102 1620734 1637337
696.6587 1655087 1673313 1689830 1701550 1706144 1703703 1697205 1691376
700.5156 1690574 1696942 1709790 1726352 1743246 1757786 1768617 1775651
704.3726 1779615 1781486 1782055 1781751 1780825 1779798 1779851 1782756
708.2295 1790212 1802882 1819754 1838279 1855285 1868148 1875598 1877868
712.0864 1876289 1872684 1868825 1866065 1865176 1866400 1869683 1874862
715.9434 1881506 1888312 1892498 1889977 1876850 1851844 1818311 1784198
719.8003 1759382 1751452 1762188 1786841 1816631 1842998 1861143 1871062
723.6572 1875954 1879448 1883462 1887738 1890828 1891526 1889791 1886793
727.5142 1884306 1883929 1886481 1891759 1898656 1905583 1911013 1913906
731.3711 1913838 1910837 1905122 1896973 1886792 1875186 1862866 1850329
735.2280 1837522 1823798 1808275 1790400 1770339 1748876 1726894 1704748
739.0850 1681966 1657444 1629988 1598854 1563993 1525968 1485736 1444495
742.9419 1403625 1364588 1328613 1296240 1266988 1239476 1212062 1183736
746.7988 1154793 1126907 1102523 1083858 1071979 1066381 1065332 1066852
750.6558 1069894 1075048 1084225 1099373 1120919 1147013 1174180 1199012
754.5127 1219710 1236327 1249612 1259574 1265198 1265801 1262963 1261160
758.3696 1265978 1280681 1303398 1327116 1342810 1343935 1329531 1304197
762.2266 1275288 1249363 1229985 1217777 1211983 1212104 1218549 1232221
766.0835 1253719 1282828 1318580 1359632 1404650 1452483 1502197 1553072
769.9404 1604611 1656518 1708611 1760671 1812294 1862819 1911355 1956922
773.7974 1998657 2036047 2069068 2098170 2124078 2147506 2168912 2188441
777.6543 2206033 2221630 2235320 2247354 2258052 2267657 2276223 2283580
781.5112 2289385 2293277 2295089 2295057 2293900 2292684 2292485 2293996
785.3682 2297268 2301719 2306400 2310363 2312961 2313986 2313632 2312353
789.2251 2310671 2308998 2307521 2306210 2304955 2303778 2302955 2302939
793.0820 2304095 2306395 2309313 2312015 2313773 2314322 2313954 2313272
796.9390 2312816 2312815 2313230 2314002 2315261 2317288 2320252 2323957
800.7959 2327849 2331325 2334125 2336481 2338884 2341634 2344545 2347055
804.6528 2348673 2349396 2349759 2350474 2351968 2354168 2356713 2359357
808.5098 2362219 2365670 2369963 2374945 2380076 2384766 2388735 2392142
812.3667 2395400 2398821 2402379 2405727 2408457 2410400 2411767 2413037
816.2236 2414681 2416900 2419550 2422293 2424850 2427173 2429415 2431766
820.0806 2434327 2437147 2440392 2444445 2449772 2456593 2464585 2472891
823.9375 2480496 2486735 2491592 2495579 2499301 2503046 2506706 2510069
827.7944 2513233 2516800 2521642 2528372 2536854 2546080 2554557 2561002
831.6514 2564951 2566949 2568202 2569912 2572700 2576441 2580592 2584729
835.5083 2588929 2593715 2599624 2606721 2614416 2621725 2627821 2632489
839.3652 2636193 2639712 2643608 2647878 2652031 2655513 2658172 2660438
843.2222 2663100 2666834 2671831 2677763 2684076 2690366 2696550 2702731
847.0791 2708916 2714840 2720061 2724265 2727521 2730317 2733333 2737131
850.9360 2741942 2747646 2753893 2760277 2766490 2772437 2778309 2784541
854.7930 2791617 2799775 2808779 2817951 2826492 2833922 2840350 2846372
858.6499 2852671 2859605 2867080 2874759 2882426 2890175 2898279 2906870
862.5068 2915711 2924288 2932176 2939391 2946456 2954095 2962773 2972421
866.3638 2982512 2992431 3001835 3010783 3019569 3028452 3037518 3046753
870.2207 3056225 3066175 3076899 3088512 3100779 3113196 3125279 3136862
874.0776 3148179 3159648 3171535 3183717 3195754 3207198 3217929 3228275
877.9346 3238837 3250160 3262475 3275639 3289275 3302956 3316328 3329154
881.7915 3341340 3352964 3364278 3375629 3387298 3399358 3411687 3424124
885.6484 3436664 3449504 3462882 3476818 3490976 3504771 3517674 3529495
889.5054 3540464 3551068 3561776 3572837 3584256 3595906 3607654 3619393
893.3623 3631001 3642255 3652833 3662398 3670768 3678079 3684842 3691843
897.2192 3699906 3709610 3721090 3734023 3747791 3761739 3775379 3788455
901.0762 3800866 3812545 3823397 3833345 3842453 3851023 3859555 3868586
904.9331 3878443 3889085 3900124 3911021 3921360 3931031 3940218 3949214
908.7900 3958219 3967244 3976201 3985074 3994022 4003307 4013106 4023326
912.6470 4033619 4043588 4053064 4062249 4071613 4081588 4092281 4103375
916.5039 4114298 4124520 4133767 4142040 4149469 4156160 4162180 4167675
920.3608 4172984 4178589 4184893 4191960 4199441 4206765 4213501 4219636
924.2178 4225559 4231761 4238455 4245384 4251976 4257719 4262495 4266638
928.0747 4270680 4274977 4279468 4283750 4287388 4290255 4292689 4295356
931.9316 4298945 4303843 4309960 4316737 4323317 4328803 4332539 4334341
935.7886 4334601 4334165 4334018 4334881 4336928 4339798 4342876 4345673
939.6455 4348048 4350147 4352159 4354098 4355787 4357037 4357826 4358326
943.5024 4358751 4359188 4359572 4359831 4360046 4360451 4361245 4362385
947.3594 4363551 4364366 4364669 4364626 4364554 4364604 4364573 4364027
951.2163 4362647 4360539 4358255 4356503 4355760 4356048 4356990 4358071
955.0732 4358893 4359297 4359315 4359076 4358742 4358498 4358530 4358958
958.9302 4359741 4360637 4361304 4361500 4361287 4361076 4361453 4362851
962.7871 4365271 4368211 4370884 4372601 4373115 4372745 4372248 4372518
966.6440 4374255 4377754 4382844 4388983 4395449 4401560 4406832 4411044
970.5010 4414209 4416507 4418260 4419962 4422275 4425934 4431514 4439173
974.3579 4448517 4458702 4468736 4477816 4485538 4491919 4497280 4502105
978.2148 4506938 4512316 4518679 4526265 4535015 4544595 4554523 4564387
982.0718 4574020 4583553 4593316 4603639 4614673 4626304 4638197 4649934
985.9287 4661171 4671767 4681838 4691745 4702003 4713102 4725268 4738265
989.7856 4751374 4763621 4774205 4782906 4790241 4797241 4804969 4814052
993.6426 4824467 4835674 4846946 4857700 4867643 4876750 4885155 4893035
997.4995 4900532 4907712 4914551 4920987 4927018 4932783 4938540 4944525
1001.3564 4950791 4957154 4963327 4969153 4974740 4980377 4986272 4992312
1005.2134 4998046 5002895 5006451 5008640 5009688 5009972 5009914 5009967
1009.0703 5010590 5012118 5014518 5017239 5019336 5019912 5018639 5015995
1012.9272 5013023 5010713 5009393 5008510 5006964 5003772 4998677 4992338
1016.7842 4986011 4980927 4977731 4976282 4975869 4975697 4975319 4974751
1020.6411 4974250 4973916 4973430 4972154 4969547 4965619 4961093 4957093
1024.4980 4954518 4953490 4953254 4952614 4950627 4947117 4942678 4938208
1028.3550 4934330 4931092 4928098 4924891 4921258 4917257 4913010 4908522
1032.2119 4903696 4898524 4893249 4888320 4884167 4880963 4878559 4876605
1036.0688 4874708 4872504 4869613 4865645 4860312 4853660 4846200 4838801
1039.9258 4832349 4827360 4823780 4821058 4818440 4815274 4811188 4806108
1043.7827 4800165 4793568 4786519 4779181 4771721 4764387 4757559 4751683
1047.6396 4747085 4743744 4741174 4738542 4735008 4730099 4723937 4717163
1051.4966 4710631 4704988 4700378 4696365 4692134 4686894 4680303 4672716
1055.3535 4665074 4658425 4653321 4649438 4645708 4640941 4634563 4626982
1059.2104 4619340 4612796 4607823 4603992 4600350 4596105 4591113 4585870
1063.0674 4581054 4576972 4573306 4569323 4564381 4558394 4551947 4545995
1066.9243 4541317 4538075 4535753 4533517 4530786 4527610 4524602 4522443
1070.7813 4521286 4520491 4518888 4515436 4509846 4502780 4495535 4489427
1074.6382 4485268 4483188 4482802 4483517 4484766 4486075 4487032 4487278
1078.4951 4486604 4485100 4483265 4481975 4482245 4484874 4490128 4497608
1082.3521 4506390 4515372 4523660 4530816 4536884 4542242 4547379 4552697
1086.2090 4558383 4564365 4570369 4576073 4581292 4586084 4590678 4595251
1090.0659 4599721 4603746 4606993 4609476 4611703 4614485 4618495 4623925
1093.9229 4630473 4637660 4645209 4653184 4661795 4671065 4680641 4689920
1097.7798 4698371 4705817 4712477 4718774 4725080 4731589 4738363 4745474
1101.6367 4753092 4761424 4770560 4780321 4790260 4799827 4808649 4816744
1105.4937 4824531 4832608 4841434 4851114 4861420 4872003 4882615 4893154
1109.3506 4903544 4913593 4923021 4931682 4939794 4947947 4956814 4966738
1113.2075 4977494 4988406 4998752 5008174 5016843 5025310 5034191 5043884
1117.0645 5054452 5065656 5077075 5088269 5098967 5109216 5119410 5130140
1120.9214 5141882 5154725 5168300 5181991 5195273 5207973 5220261 5232421
1124.7783 5244556 5256460 5267707 5277895 5286891 5294943 5302624 5310622
1128.6353 5319472 5329349 5340017 5351005 5361908 5372648 5383477 5394688
1132.4922 5406196 5417323 5427011 5434404 5439456 5443133 5447025 5452572
1136.3491 5460346 5469831 5479761 5488782 5495981 5501041 5504066 5505333
1140.2061 5505214 5504304 5503524 5504002 5506677 5511854 5519022 5527123
1144.0630 5535154 5542746 5550380 5559089 5569851 5583031 5598203 5614417
1147.9199 5630740 5646749 5662707 5679376 5697612 5717961 5740478 5764788
1151.7769 5790315 5816505 5842921 5869212 5895036 5920059 5944065 5967108
1155.6338 5989579 6012078 6035145 6058984 6083355 6107679 6131278 6153601
1159.4907 6174329 6193381 6210901 6227245 6242944 6258556 6274432 6290567
1163.3477 6306651 6322368 6337718 6353118 6369170 6386261 6404284 6422681
1167.2046 6440747 6457954 6474099 6489284 6503850 6518323 6533282 6549011
1171.0615 6565071 6580124 6592417 6600847 6606001 6610357 6617246 6629031
1174.9185 6645592 6664128 6680407 6690709 6693278 6688589 6678659 6666193
1178.7754 6654238 6646305 6646342 6657974 6683152 6720997 6767726 6817896
1182.6323 6866274 6909256 6945157 6973562 6994590 7008760 7017458 7023318
1186.4893 7029816 7040040 7055318 7074662 7095413 7114704 7130824 7143750
1190.3462 7154734 7165413 7177034 7190140 7204653 7220152 7236139 7252226
1194.2031 7268204 7284001 7299576 7314852 7329806 7344694 7360192 7377239
1198.0601 7396563 7418163 7441155 7464153 7485985 7506252 7525391 7544234
1201.9170 7563446 7583230 7603435 7623862 7644488 7665416 7686661 7707962
1205.7739 7728813 7748705 7767413 7785140 7802348 7819318 7835685 7850318
1209.6309 7861804 7869429 7874107 7878561 7886395 7900417 7921169 7946613
1213.4878 7973214 7997747 8018683 8036332 8051875 8066151 8079144 8090457
1217.3447 8100189 8109361 8119472 8131531 8145401 8160037 8174396 8188227
1221.2017 8202001 8215993 8229345 8240058 8246206 8247611 8246744 8247972
1225.0586 8255472 8271054 8293240 8318135 8341424 8360277 8374122 8384180
1228.9155 8392333 8400138 8408410 8417339 8426809 8436639 8446690 8456868
1232.7725 8467103 8477309 8487359 8497095 8506395 8515271 8523913 8532633
1236.6294 8541709 8551236 8561081 8571022 8580986 8591215 8602150 8614009
1240.4863 8626234 8637268 8644994 8647836 8645963 8641809 8639382 8642543
1244.3433 8653135 8670017 8689530 8707123 8719205 8724281 8722920 8716782
1248.2002 8707400 8695383 8680336 8661372 8637729 8609092 8575509 8537104
1252.0571 8493900 8445882 8393106 8335697 8273737 8207356 8137200 8064955
1255.9141 7993221 7924264 7858207 7792076 7721065 7642006 7557217 7476094
1259.7710 7412812 7380842 7387066 7428791 7495402 7573768 7654273 7733728
1263.6279 7813095 7891180 7958697 7998134 7992067 7936786 7852750 7782761
1267.4849 7774933 7857502 8019810 8212209 8367148 8430539 8385810 8257568
1271.3418 8094602 7944080 7832301 7760924 7716702 7685361 7660484 7644100
1275.1987 7641874 7658018 7693139 7744946 7809948 7884656 7966133 8052404
1279.0557 8142890 8238447 8340505 8449480 8563371 8677590 8786472 8885747
1282.9126 8974426 9054617 9128990 9197403 9255239 9295346 9313037 9311042
1286.7695 9300649 9297441 9313760 9352606 9406871 9464235 9514197 9552642
1290.6265 9581622 9605657 9627920 9648870 9667254 9681628 9690842 9693654
1294.4834 9688838 9676505 9659718 9644588 9637959 9643860 9661189 9684323
1298.3403 9706256 9722051 9730492 9733365 9733517 9733232 9733672 9735015
1302.1973 9736732 9737836 9737337 9734871 9730958 9726314 9720487 9711060
1306.0542 9694713 9670092 9640749 9615636 9605789 9618189 9649890 9686028
1309.9111 9703737 9681215 9608332 9493701 9364018 9254695 9195336 9196941
1313.7681 9247478 9318236 9377204 9401794 9384314 9329062 9245718 9145288
1317.6250 9041218 8952521 8903103 8914289 8993792 9128623 9287957 9435549
1321.4819 9544794 9607843 9634376 9642348 9647325 9656419 9668700 9679688
1325.3389 9685948 9687074 9684815 9680915 9675552 9667543 9656040 9642348
1329.1958 9630152 9623461 9623563 9627604 9630642 9630081 9628510 9631256
1333.0527 9639063 9641405 9617271 9545382 9417768 9246057 9053750 8858549
1336.9097 8658219 8433324 8168637 7879880 7625280 7489001 7541944 7801930
1340.7666 8217971 8689388 9109191 9406891 9568111 9624509 9625696 9612646
1344.6235 9605896 9608671 9615760 9619525 9611597 9584407 9535582 9472824
1348.4805 9413771 9378627 9379815 9415976 9473960 9535680 9583721 9603107
1352.3374 9582326 9517725 9420088 9316408 9240998 9218676 9251199 9317430
1356.1943 9387287 9438506 9463578 9463518 9436280 9370502 9248433 9053520
1360.0513 8776857 8422198 8013181 7602101 7270969 7113732 7199723 7535616
1363.9082 8050653 8618522 9105814 9419986 9532362 9470835 9295803 9077377
1367.7651 8881937 8764033 8756890 8861543 9041654 9230289 9347770 9323790
1371.6221 9117356 8731901 8223690 7698137 7286957 7106149 7208988 7558493
1375.4790 8038720 8503556 8838595 9003068 9031424 8999225 8977723 9003477
1379.3359 9074729 9167636 9256123 9323187 9362408 9375795 9372639 9367217
1383.1929 9369822 9370865 9328528 9175797 8854273 8362049 7785233 7283969
1387.0498 7028578 7115901 7515316 8080827 8625477 9013532 9213653 9282551
1390.9067 9295488 9274816 9166738 8881780 8370941 7686232 6984406 6467154
1394.7637 6287806 6473413 6904023 7362910 7636253 7614457 7343726 7000036
1398.6206 6798554 6887538 7283970 7881356 8515163 9038970 9366944 9471272
1402.4775 9358511 9057785 8631355 8187136 7863414 7778252 7970466 8374164
1406.3345 8849247 9250934 9494276 9575986 9548689 9474515 9392174 9313378
1410.1914 9239723 9179626 9151628 9174461 9253118 9369880 9484756 9546038
1414.0483 9508492 9351757 9087283 8745300 8346916 7882289 7318726 6644059
1417.9053 5920372 5304815 5006673 5189954 5872288 6883261 7916566 8656830
1421.7622 8917421 8717563 8260248 7826259 7642654 7792961 8207912 8728112
1425.6191 9192283 9498425 9612549 9539658 9295400 8906886 8437004 7997962
1429.4761 7723351 7703793 7929546 8288687 8631486 8858001 8962223 8996743
1433.3330 8986554 8867230 8509706 7826472 6883791 5928636 5294178 5234062
1437.1899 5788767 6767403 7851593 8751596 9321404 9578584 9640800 9635614
1441.0469 9639302 9666439 9696208 9706640 9694654 9674687 9660529 9642038
1444.9038 9572672 9382523 9019554 8500518 7936690 7505490 7370665 7592203
1448.7607 8082647 8642905 9060987 9215984 9126426 8918373 8738093 8663442
1452.6177 8661880 8611068 8363681 7820259 6976757 5930077 4844942 3901027
1456.4746 3244622 2962330 3079044 3568725 4364358 5363667 6438974 7459509
1460.3315 8320824 8962540 9359552 9494563 9341636 8887069 8181151 7377877
1464.1885 6714602 6422173 6612057 7214342 8012749 8757536 9283822 9561809
1468.0454 9656229 9634949 9495842 9160745 8536161 7598609 6451233 5316921
1471.9023 4466097 4108709 4299404 4904827 5657945 6281028 6617357 6699590
1475.7593 6714578 6884837 7337056 8033396 8798852 9418608 9743392 9747597
1479.6162 9521609 9216952 8979327 8899158 8993546 9218259 9497292 9752195
1483.4731 9916821 9936559 9766074 9381767 8808087 8133561 7487961 6978871
1487.3301 6626371 6350671 6036068 5634069 5229082 5010332 5162670 5751238
1491.1870 6678200 7731999 8681903 9350052 9631172 9483774 8932588 8088662
1495.0439 7151275 6354812 5871655 5733683 5835753 6025367 6212574 6416205
1498.9009 6715267 7153142 7678862 8173523 8534185 8738851 8835036 8862494
1502.7578 8778466 8453798 7752049 6638150 5239131 3812735 2642746 1925915
1506.6147 1714500 1936164 2462395 3172886 3978837 4806852 5575700 6198498
1510.4717 6615544 6832001 6925672 7009945 7169414 7405890 7627074 7685719
1514.3286 7451204 6881698 6065303 5208701 4569108 4348913 4595967 5161289
1518.1855 5746769 6031122 5816890 5124640 4186109 3340896 2889316 2970950
1522.0425 3520081 4310490 5063149 5565837 5750807 5697326 5563983 5493516
1525.8994 5547275 5704417 5915087 6159702 6466461 6875812 7383409 7908142
1529.7563 8309876 8444663 8223946 7650434 6823459 5919707 5155000 4730015
1533.6133 4768913 5271552 6102585 7026123 7772210 8108948 7899544 7136354
1537.4702 5948953 4578929 3314900 2399517 1946694 1915542 2159765 2521813
1541.3271 2908975 3303946 3715851 4125466 4479130 4738719 4941012 5205992
1545.1841 5672683 6400205 7302644 8165632 8738735 8851948 8495918 7831400
1549.0410 7129582 6669873 6631142 7013918 7627492 8160061 8315979 7962489
1552.8979 7207165 6351770 5734807 5545708 5718677 5970749 5961154 5475551
1556.7549 4528961 3339730 2209929 1396796 1045797 1197795 1829668 2877935
1560.6118 4228484 5697952 7046717 8039650 8530838 8525393 8181567 7749687
1564.4688 7475947 7510954 7855003 8356328 8764251 8825717 8397020 7526357
1568.3257 6461513 5563423 5155039 5378441 6137946 7161385 8140582 8863491
1572.1826 9260972 9355582 9171181 8686570 7874681 6793611 5646720 4746002
1576.0396 4384033 4690413 5564806 6728892 7862119 8737479 9284514 9562418
1579.8965 9682158 9735626 9767548 9787580 9795956 9798454 9804829 9820339
1583.7534 9841908 9862044 9875457 9882074 9884781 9884976 9880007 9864038
1587.6105 9831240 9779234 9711480 9638005 9573864 9534631 9529259 9552930
1591.4674 9584458 9592174 9548005 9443622 9299122 9157466 9065981 9054923
1595.3243 9125481 9253473 9404449 9549008 9669213 9755619 9801833 9803356
1599.1813 9760900 9682602 9580843 9466098 9345010 9226352 9129339 9083239
1603.0382 9112590 9215783 9354293 9465320 9493497 9421035 9274681 9104423
1606.8951 8950480 8824088 8715899 8622635 8566727 8588927 8716781 8934036
1610.7521 9178668 9375798 9482256 9505815 9478476 9400331 9200597 8758816
1614.6090 7988561 6934676 5812225 4943635 4615883 4937641 5783732 6861680
1618.4659 7857375 8568208 8947054 9047189 8927109 8595387 8035914 7285669
1622.3229 6492822 5895193 5717556 6047417 6769064 7602052 8227356 8433688
1626.1798 8207890 7727309 7264959 7059599 7214335 7667856 8244754 8753268
1630.0367 9076805 9210465 9225105 9184732 9073628 8786055 8191910 7239641
1633.8937 6028459 4797998 3835835 3356056 3418563 3929093 4707377 5573345
1637.7506 6401924 7128858 7725428 8173883 8463363 8602853 8632395 8615615
1641.6075 8611033 8635805 8643577 8533826 8194667 7561695 6662926 5623936
1645.4645 4628496 3855996 3429307 3395640 3736856 4386073 5230900 6106438
1649.3214 6801652 7100345 6852347 6042196 4815623 3444964 2247656 1493819
1653.1783 1337832 1791383 2737084 3971807 5265896 6422664 7321478 7931643
1657.0353 8295635 8493176 8603110 8674981 8713713 8678098 8497335 8109549
1660.8922 7513498 6805854 6171014 5812858 5858626 6292642 6964529 7666739
1664.7491 8227254 8556198 8627277 8430666 7953884 7213474 6303915 5404864
1668.6061 4719687 4380694 4392010 4654436 5048672 5504359 5997526 6486810
1672.4630 6858900 6951131 6653107 6015276 5274054 4757985 4724622 5227513
1676.3199 6091700 7004998 7665191 7902743 7727256 7293376 6815849 6472954
1680.1769 6331882 6320537 6259004 5945088 5262520 4261443 3165581 2293706
1684.0338 1928440 2195691 3013499 4132177 5240936 6086578 6551560 6665935
1687.8907 6561878 6402062 6316302 6368500 6557673 6841802 7165971 7478314
1691.7477 7727428 7849039 7760302 7378855 6668070 5687351 4612335 3697648
1695.6046 3184390 3189931 3636506 4263189 4726995 4752954 4264266 3428064
1699.4615 2589348 2119113 2246965 2959563 4014882 5062073 5800668 6095055
1703.3185 5992562 5654758 5260056 4939291 4767175 4785414 5015968 5445596
1707.1754 6001110 6552073 6957948 7137367 7112903 6996891 6923200 6966225
1711.0323 7095952 7194331 7121684 6795418 6238898 5574776 4964983 4527415
1714.8893 4274729 4113077 3907058 3576165 3163528 2830034 2772430 3113406
1718.7462 3830108 4761597 5684716 6408808 6837823 6978752 6910330 6740494
1722.6031 6572025 6479594 6495227 6604213 6757458 6899129 6994768 7039943
1726.4601 7042492 6994098 6859411 6599135 6214235 5775069 5403165 5205364
1730.3170 5198068 5274555 5246798 4946795 4331404 3527228 2785055 2366642
1734.1740 2426301 2950158 3777886 4682149 5453789 5952041 6114603 5950612
1738.0309 5537987 5021301 4586530 4399004 4525922 4893058 5315638 5596268
1741.8878 5632951 5468610 5251922 5138952 5201332 5395120 5598916 5687246
1745.7448 5593161 5331868 4984051 4654375 4424656 4319729 4301073 4294633
1749.6017 4242003 4146334 4081787 4155732 4444536 4942839 5557184 6144825
1753.4586 6571234 6754675 6682451 6403694 6011574 5622209 5349534 5275287
1757.3156 5420604 5731783 6090720 6351198 6391155 6163109 5721908 5213251
1761.1725 4820394 4687908 4859015 5261510 5751293 6186329 6484014 6629146
1765.0294 6638630 6521861 6274701 5910776 5495988 5144239 4962722 4979441
1768.8864 5107003 5176675 5029441 4610903 4012293 3432438 3082199 3084489
1772.7433 3422355 3958454 4510011 4935913 5190320 5319638 5412673 5538082
1776.6002 5705385 5866874 5951800 5908434 5731478 5465907 5191304 4995414
1780.4572 4944264 5055813 5286942 5544312 5721301 5747318 5623537 5422638
1784.3141 5250455 5191438 5269797 5446697 5649671 5811569 5895128 5893552
1788.1710 5814499 5662744 5433197 5117199 4717835 4266346 3830018 3502433
1792.0280 3372903 3484501 3803019 4220620 4601003 4845032 4937246 4941634
1795.8849 4948076 5005954 5091501 5130844 5059511 4873073 4632618 4424631
1799.7418 4308440 4289786 4334662 4405630 4489133 4595200 4735976 4904905
1803.5988 5073544 5205839 5276614 5281396 5234446 5160101 5083155 5020238
1807.4557 4972710 4924227 4847856 4723120 4554475 4377671 4246212 4204003
1811.3126 4261399 4390523 4542130 4671344 4754960 4791550 4789328 4754307
1815.1696 4687805 4592566 4479603 4368614 4281081 4230929 4218596 4231368
1819.0265 4249225 4253444 4234542 4195831 4149671 4106722 4063810 3999574
1822.8834 3884484 3702669 3472706 3251453 3113163 3111672 3246092 3451225
1826.7404 3621359 3657583 3515285 3227718 2893494 2633922 2540799 2639442
1830.5973 2883616 3182702 3445420 3617170 3693373 3705886 3694591 3682743
1834.4542 3669376 3639600 3582596 3504174 3426327 3375385 3367099 3397896
1838.3112 3447191 3488984 3505379 3493234 3459129 3405928 3321569 3181384
1842.1681 2966704 2689207 2402386 2186687 2112033 2199046 2404450 2642065
1846.0250 2827563 2919409 2931720 2914373 2916877 2960411 3033091 3105883
1849.8820 3154168 3170224 3161838 3142553 3122575 3105653 3091252 3078091
1853.7389 3065902 3054948 3044727 3033374 3018262 2997390 2970743 2940808
1857.5958 2911807 2887820 2870765 2859456 2850446 2840226 2827420 2813588
1861.4528 2802129 2795894 2794783 2794612 2787902 2766331 2723673 2657598
1865.3097 2569287 2461408 2336549 2198317 2055189 1924220 1830263 1798528
1869.1666 1843038 1957525 2115104 2278083 2412907 2501958 2546269 2559188
1873.0236 2556360 2548371 2539145 2528690 2516535 2503218 2489699 2476331
1876.8805 2462680 2448212 2432967 2417612 2403035 2389995 2378977 2370040
1880.7374 2362482 2354623 2344135 2328965 2308332 2283205 2256198 2231178
1884.5944 2212603 2204019 2205336 2209951 2204364 2172701 2105516 2008236
1888.4513 1903061 1821176 1788421 1812542 1879706 1962104 2031352 2069486
1892.3082 2072263 2045584 1999894 1946750 1897915 1864417 1853694 1865992
1896.1652 1893303 1922779 1943050 1949310 1943928 1932838 1920949 1909901
1900.0221 1898941 1887110 1874443 1861521 1848535 1835182 1821484 1808381
1903.8790 1797145 1787986 1779179 1767662 1750711 1727335 1698412 1665801
1907.7360 1631582 1598155 1568892 1548196 1540247 1546832 1565609 1590125
1911.5929 1611947 1624057 1623867 1614184 1601252 1590459 1581866 1568495
1915.4498 1539322 1486220 1411177 1328971 1262610 1233073 1248729 1300365
1919.3068 1364686 1414400 1429609 1405130 1351040 1287190 1234770 1208500
1923.1637 1212175 1238771 1274636 1305726 1323068 1325053 1315937 1301995
1927.0206 1287883 1275136 1263007 1250303 1236614 1222290 1207696 1192709
1930.8776 1176937 1160364 1143742 1128340 1115233 1104673 1095989 1088048
1934.7345 1079880 1071013 1061319 1050632 1038624 1025229 1011228 998203
1938.5914 987328 977515 964487 942237 906807 860208 811485 773341 755774
1942.9304 760556 780226 802346 816291 818228 811479 802729 797174 795832
1947.2695 796200 794933 790238 782487 773215 763742 754510 745318 735897
1951.6085 726202 716290 706103 695471 684365 673115 662344 652608 644016
1955.9476 636107 628061 619093 608752 597011 584192 570850 557709 545561
1960.2866 535081 526572 519817 514181 508943 503592 497844 491355 483456
1964.6257 473275 460366 445427 430533 418499 411625 410550 413931 419130
1968.9647 423438 425102 423666 419649 413998 407682 401535 396204 392017
1973.3038 388845 386102 383014 379055 374262 369266 365016 362437 362208
1977.6428 364726 370155 378397 389012 401162 413749 425723 436404 445605
1981.9819 453494 460320 466236 471343 475852 480111 484359 488371 491386
1986.3209 492559 491768 490113 489522 491462 495567 499278 499091 492812
1990.6600 481393 468983 460962 461117 469686 483473 497778 508831 515224
1994.9990 517730 518030 517411 516264 514418 511763 508574 505346 502397
1999.3381 499640 496678 493123 488853 484035 478947 473747 468354 462480
2003.6771 455762 447905 438816 428705 418154 408098 399649 393751 390791
2008.0162 390380 391468 392794 393429 393099 392115 391009 390144 389568
2012.3552 389128 388633 387886 386563 384159 380188 374615 368188 362328
2016.6943 358534 357622 359306 362410 365543 367793 368989 369478 369671
2021.0333 369744 369641 369275 368669 367925 367085 366049 364665 362897
2025.3724 360920 359053 357586 356634 356147 356018 356200 356713 357550
2029.7114 358594 359625 360431 360943 361275 361656 362324 363467 365253
2034.0505 367866 371477 376134 381674 387772 394113 400560 407138 413824
2038.3895 420317 426046 430509 433737 436509 440082 445528 453119 462153
2042.7286 471354 479543 486166 491400 495901 500429 505587 511700 518778
2047.0676 526557 534681 543076 552339 563805 579052 598946 622769 648061
2051.4067 671413 689896 702312 709596 714174 718738 725109 733751 743980
2055.7458 754585 764446 772897 779797 785394 790101 794310 798314 802347
2060.0847 806686 811640 817345 823470 829084 832951 834220 833139 831280
2064.4238 831021 834489 842564 854509 868390 881978 893593 902527 908988
2068.7629 913774 917898 922277 927499 933697 940596 947732 954763 961650
2073.1021 968601 975833 983352 990951 998437 1005876 1013665 1022326 1032160
2077.4409 1043010 1054267 1065143 1075019 1083685 1091358 1098507 1105604
2081.2979 1112946 1120619 1128561 1136649 1144717 1152531 1159786 1166205
2085.1548 1171692 1176400 1180611 1184454 1187692 1189788 1190287 1189278
2089.0117 1187573 1186399 1186734 1188702 1191402 1193279 1192825 1189205
2092.8687 1182538 1173779 1164352 1155726 1149062 1144989 1143548 1144300
2096.7256 1146567 1149710 1153296 1157100 1160999 1164858 1168522 1171900
2100.5825 1175041 1178114 1181303 1184695 1188239 1191809 1195288 1198613
2104.4395 1201761 1204731 1207558 1210358 1213326 1216657 1220421 1224490
2108.2964 1228596 1232496 1236117 1239570 1243022 1246522 1249939 1253063
2112.1533 1255788 1258235 1260699 1263468 1266622 1269955 1273045 1275412
2116.0103 1276653 1276515 1274908 1271907 1267748 1262787 1257401 1251838
2119.8672 1246113 1240017 1233260 1225669 1217306 1208426 1199294 1189980
2123.7241 1180269 1169750 1158043 1145005 1130814 1115881 1100656 1085450
2127.5811 1070343 1055196 1039725 1023588 1006444 988023 968184 946968 924627
2131.9202 901587 878368 855475 833305 812114 792042 773209 755799 740094
2136.2593 726389 714827 705238 697104 689697 682334 674590 666339 657606
2140.5984 648360 638427 627604 615891 603640 591487 580053 569622 560011
2144.9373 550713 541223 531331 521187 511156 501580 492634 484315 476529
2149.2764 469143 461968 454725 447080 438793 429868 420598 411417 402627
2153.6155 394149 385470 375808 364430 350967 335616 319174 302913 288343
2157.9546 276889 269576 266797 268264 273159 280433 289116 298507 308184
2162.2935 317890 327393 336439 344809 352445 359535 366478 373723 381554
2166.6326 389931 398475 406610 413788 419701 424375 428112 431323 434333
2170.9717 437248 439943 442160 443672 444421 444576 444474 444497 444944
2175.3108 445966 447587 449764 452429 455477 458701 461743 464127 465407
2179.6497 465382 464266 462710 461622 461857 463908 467746 472905 478728
2183.9888 484655 490390 495893 501246 506508 511661 516645 521438 526092
2188.3279 530697 535315 539939 544527 549064 553613 558287 563167 568214
2192.6670 573245 578000 582263 585968 589225 592275 595406 598868 602828
2197.0059 607325 612261 617406 622456 627128 631269 634910 638236 641499
2201.3450 644910 648575 652476 656475 660350 663856 666827 669279 671451
2205.6841 673720 676416 679650 683281 687047 690796 694619 698805 703611
2210.0232 709020 714654 719912 724263 727515 729922 732055 734546 737809
2214.3621 741912 746614 751562 756488 761316 766099 770870 775516 779802
2218.7012 783540 786799 789966 793589 798070 803404 809155 814697 819570
2223.0403 823715 827465 831312 835646 840630 846246 852408 859024 865959
2227.3794 872972 879736 885967 891583 896778 901946 907504 913703 920536
2231.7183 927753 934976 941857 948223 954153 959926 965864 972125 978617
2236.0574 985084 991320 997367 1003514 1010097 1017254 1024812 1032418 1039784
2240.3965 1046876 1053889 1061059 1068471 1075996 1083393 1090461 1097118
2244.2534 1103395 1109376 1115168 1120928 1126872 1133225 1140119 1147485
2248.1104 1155042 1162380 1169131 1175105 1180361 1185168 1189892 1194849
2251.9673 1200178 1205792 1211433 1216837 1221928 1226945 1232404 1238884
2255.8242 1246750 1255958 1266069 1276475 1286695 1296563 1306198 1315790
2259.6812 1325360 1334668 1343342 1351147 1358208 1365014 1372197 1380194
2263.5381 1389029 1398342 1407653 1416677 1425498 1434485 1444042 1454377
2267.3950 1465447 1477096 1489236 1501920 1515249 1529202 1543570 1558057
2271.2520 1572493 1586965 1601759 1617129 1633098 1649452 1665952 1682606
2275.1089 1699764 1717944 1737501 1758383 1780161 1802303 1824500 1846825
2278.9658 1869653 1893426 1918453 1944823 1972432 2001008 2030114 2059160
2282.8228 2087506 2114652 2140410 2164942 2188599 2211684 2234287 2256321
2286.6797 2277711 2298579 2319262 2340143 2361408 2382892 2404111 2424427
2290.5366 2443245 2460164 2475058 2488136 2499931 2511168 2522481 2534074
2294.3936 2545559 2556145 2565133 2572400 2578506 2584301 2590277 2596146
2298.2505 2600982 2603846 2604443 2603349 2601647 2600294 2599661 2599504
2302.1074 2599253 2598269 2595860 2591145 2583058 2570679 2553749 2532985
2305.9644 2509876 2486025 2462440 2439246 2415987 2392256 2368178 2344407
2309.8213 2321731 2300631 2281183 2263345 2247354 2233851 2223553 2216663
2313.6782 2212389 2208889 2203697 2194383 2179145 2157117 2128366 2093689
2317.5352 2054396 2012151 1968888 1926721 1887734 1853635 1825390 1803108
2321.3921 1786369 1774941 1769442 1771345 1782007 1801081 1825253 1848354
2325.2490 1863138 1863963 1848918 1820176 1782486 1740881 1699028 1658992
2329.1060 1621997 1589165 1561551 1539691 1523401 1512227 1506041 1504916
2332.9629 1508000 1512304 1512853 1504802 1486445 1460931 1435076 1415691
2336.8198 1405725 1402757 1400796 1394072 1380338 1361775 1343294 1329597
2340.6768 1322841 1322128 1324838 1328860 1334283 1343599 1360493 1388504
2344.5337 1431047 1493067 1582547 1708946 1877151 2079142 2288951 2466236
2348.3906 2569253 2571594 2473616 2301845 2096653 1895393 1720179 1575590
2352.2476 1454945 1349252 1253077 1165332 1086861 1018010 957988 905634 860220
2356.5867 821480 789122 762560 741138 724532 712794 705965 703604 704676
2360.9255 707910 712341 717673 724282 732939 744455 759400 777977 800035
2365.2646 825198 853048 883317 916002 951388 989968 1032310 1078901 1130028
2369.6038 1185723 1245798 1309957 1377903 1449428 1524435 1602908 1684867
2373.4607 1770314 1859199 1951413 2046825 2145323 2246801 2351076 2457781
2377.3176 2566327 2676011 2786232 2896645 3007108 3117414 3226976 3334670
2381.1746 3438981 3538328 3631367 3717106 3794811 3863855 3923676 3973888
2385.0315 4014467 4045857 4068923 4084761 4094478 4099045 4099260 4095794
2388.8884 4089269 4080305 4069526 4057517 4044764 4031590 4018113 4004267
2392.7454 3989876 3974773 3958915 3942433 3925603 3908751 3892142 3875903
2396.6023 3860015 3844349 3828729 3812998 3797058 3780901 3764615 3748376
2400.4592 3732406 3716888 3701874 3687220 3672603 3657649 3642100 3625945
2404.3162 3609417 3592880 3576677 3561066 3546266 3532549 3520245 3509623
2408.1731 3500696 3493124 3486310 3479644 3472748 3465551 3458175 3450721
2412.0300 3443140 3435257 3426930 3418178 3409207 3400290 3391616 3383211
2415.8870 3375005 3366962 3359184 3351857 3345072 3338627 3331999 3324548
2419.7439 3315889 3306166 3296053 3286421 3277878 3270469 3263739 3257092
2423.6008 3250191 3243119 3236225 3229792 3223810 3217995 3212018 3205753
2427.4578 3199336 3193035 3187050 3181417 3176049 3170878 3165923 3161261
2431.3147 3156922 3152827 3148823 3144771 3140603 3136308 3131880 3127299
2435.1716 3122591 3117905 3113515 3109717 3106667 3104279 3102265 3100298
2439.0286 3098173 3095878 3093542 3091305 3089222 3087245 3085289 3083325
2442.8855 3081446 3079857 3078782 3078330 3078387 3078627 3078655 3078241
2446.7424 3077498 3076869 3076917 3078013 3080116 3082784 3085409 3087522
2450.5994 3089000 3090056 3091075 3092404 3094245 3096659 3099636 3103126
2454.4563 3107000 3110988 3114679 3117652 3119669 3120817 3121467 3122044
2458.3132 3122742 3123372 3123480 3122666 3120920 3118715 3116790 3115718
2462.1702 3115538 3115679 3115232 3113427 3110036 3105491 3100650 3096389
2466.0271 3093218 3091139 3089751 3088513 3086995 3084997 3082554 3079847
2469.8840 3077116 3074555 3072223 3069969 3067443 3064243 3060146 3055314
2473.7410 3050314 3045912 3042712 3040853 3039932 3039185 3037834 3035417
2477.5979 3031940 3027816 3023639 3019899 3016796 3014206 3011798 3009236
2481.4548 3006334 3003105 2999700 2996321 2993160 2990381 2988094 2986311
2485.3118 2984909 2983660 2982351 2980906 2979421 2978045 2976821 2975610
2489.1687 2974176 2972370 2970245 2968006 2965840 2963781 2961742 2959669
2493.0256 2957675 2956027 2954975 2954561 2954550 2954519 2954049 2952895
2496.8826 2951069 2948826 2946572 2944733 2943578 2943101 2943005 2942844
2500.7395 2942243 2941076 2939484 2937718 2935959 2934222 2932417 2930481
2504.5964 2928463 2926496 2924693 2923070 2921575 2920184 2918984 2918144
2508.4534 2917776 2917778 2917783 2917271 2915814 2913331 2910186 2907069
2512.3103 2904696 2903486 2903390 2903964 2904618 2904898 2904625 2903847
2516.1672 2902689 2901234 2899519 2897620 2895716 2894055 2892836 2892099
2520.0242 2891718 2891509 2891368 2891330 2891510 2891968 2892610 2893204
2523.8811 2893502 2893387 2892945 2892418 2892072 2892058 2892345 2892765
2527.7380 2893107 2893210 2893003 2892482 2891672 2890620 2889421 2888239
2531.5950 2887286 2886751 2886727 2887205 2888132 2889476 2891236 2893348
2535.4519 2895586 2897559 2898859 2899299 2899062 2898644 2898586 2899175
2539.3088 2900307 2901613 2902755 2903676 2904638 2906031 2908087 2910720
2543.1658 2913566 2916206 2918390 2920148 2921704 2923321 2925150 2927215
2547.0227 2929489 2931984 2934757 2937824 2941052 2944127 2946677 2948466
2550.8796 2949558 2950333 2951333 2953026 2955623 2959032 2962945 2966983
2554.7366 2970816 2974237 2977176 2979705 2982005 2984305 2986801 2989576
2558.5935 2992601 2995805 2999187 3002877 3007089 3011970 3017442 3023150
2562.4504 3028556 3033162 3036746 3039488 3041922 3044721 3048420 3053206
2566.3074 3058864 3064916 3070872 3076460 3081696 3086780 3091881 3096990
2570.1643 3101941 3106586 3110986 3115452 3120408 3126143 3132664 3139730
2574.0212 3147047 3154445 3161914 3169490 3177099 3184526 3191517 3197962
2577.8782 3203997 3209962 3216238 3223094 3230609 3238703 3247224 3256005
2581.7351 3264887 3273713 3282339 3290666 3298700 3306581 3314568 3322948
2585.5920 3331915 3341482 3351492 3361714 3371982 3382266 3392633 3403132
2589.4490 3413706 3424223 3434590 3444874 3455300 3466114 3477416 3489074
2593.3059 3500788 3512262 3523355 3534149 3544915 3556022 3567829 3580566
2597.1628 3594221 3608483 3622799 3636585 3649508 3661671 3673581 3685890
2601.0198 3699062 3713172 3727959 3743058 3758258 3773591 3789218 3805230
2604.8767 3821512 3837773 3853716 3869223 3884431 3899657 3915248 3931437
2608.7336 3948286 3965712 3983549 4001599 4019664 4037582 4055284 4072859
2612.5906 4090580 4108838 4127998 4148220 4169354 4190971 4212539 4233657
2616.4475 4254229 4274479 4294796 4315503 4336674 4358116 4379512 4400641
2620.3044 4421544 4442539 4464078 4486544 4510090 4534611 4559835 4585470
2624.1614 4611320 4637303 4663401 4689578 4715746 4741801 4767699 4793514
2628.0183 4819410 4845546 4871983 4898654 4925440 4952297 4979341 5006809
2631.8752 5034930 5063774 5093191 5122894 5152640 5182396 5212383 5242963
2635.7322 5274422 5306772 5339690 5372648 5405164 5437044 5468462 5499836
2639.5891 5531573 5563834 5596478 5629186 5661703 5694011 5726339 5759030
2643.4460 5792336 5826296 5860721 5895299 5929737 5963887 5997794 6031673
2647.3030 6065784 6100284 6135115 6170012 6204646 6238845 6272741 6306739
2651.1599 6341295 6376621 6412500 6448339 6483425 6517247 6549688 6581000
2655.0168 6611585 6641739 6671500 6700679 6729038 6756469 6783093 6809177
2658.8738 6834947 6860399 6885221 6908868 6930767 6950521 6967997 6983274
2662.7307 6996488 7007699 7016850 7023855 7028718 7031616 7032877 7032884
2666.5876 7031989 7030476 7028583 7026518 7024433 7022360 7020161 7017565
2670.4446 7014301 7010253 7005543 7000485 6995437 6990657 6986236 6982153
2674.3015 6978376 6974903 6971721 6968700 6965539 6961857 6957386 6952179
2678.1584 6946659 6941452 6937057 6933545 6930465 6927034 6922515 6916580
2682.0154 6909454 6901775 6894268 6887417 6881314 6875723 6870291 6864760
2685.8723 6859059 6853283 6847588 6842087 6836800 6831667 6826573 6821403
2689.7292 6816091 6810658 6805218 6799946 6794992 6790406 6786105 6781905
2693.5862 6777621 6773147 6768493 6763749 6759022 6754385 6749890 6745589
2697.4431 6741556 6737850 6734429 6731099 6727526 6723354 6718360 6712580
2701.3000 6706294 6699889 6693672 6687743 6682004 6676280 6670463 6664554
2705.1570 6658614 6652674 6646715 6640761 6634989 6629762 6625480 6622323
2709.0139 6620063 6618078 6615609 6612107 6607457 6601976 6596196 6590603
2712.8708 6585476 6580891 6576813 6573165 6569844 6566679 6563442 6559901
2716.7278 6555914 6551460 6546608 6541447 6536048 6530494 6524939 6519600
2720.5847 6514653 6510082 6505621 6500872 6495588 6489924 6484500 6480138
2724.4417 6477427 6476322 6476041 6475324 6472947 6468209 6461171 6452556
2728.2986 6443399 6434648 6426901 6420343 6414840 6410069 6405630 6401110
2732.1555 6396184 6390732 6384955 6379373 6374652 6371295 6369367 6368394
2736.0125 6367521 6365847 6362766 6358163 6352390 6346071 6339828 6334039
2739.8694 6328725 6323600 6318269 6312471 6306251 6299923 6293880 6288364
2743.7263 6283363 6278715 6274298 6270146 6266391 6263091 6260120 6257232
2747.5833 6254249 6251193 6248218 6245381 6242440 6238887 6234197 6228159
2751.4402 6221015 6213348 6205796 6198813 6192597 6187156 6182408 6178197
2755.2971 6174263 6170264 6165892 6161036 6155869 6150760 6146049 6141842
2759.1541 6137956 6134049 6129838 6125256 6120447 6115637 6110986 6106538
2763.0110 6102259 6098135 6094190 6090426 6086731 6082848 6078462 6073375
2766.8679 6067631 6061515 6055407 6049574 6044051 6038666 6033193 6027523
2770.7249 6021744 6016124 6011011 6006720 6003440 6001162 5999625 5998322
2774.5818 5996595 5993833 5989693 5984230 5977855 5971128 5964514 5958220
2778.4387 5952218 5946390 5940683 5935166 5929961 5925134 5920632 5916325
2782.2957 5912104 5907939 5903836 5899720 5895376 5890527 5885047 5879184
2786.1526 5873572 5868978 5865891 5864203 5863213 5861986 5859826 5856562
2790.0095 5852452 5847802 5842629 5836630 5829499 5821321 5812698 5804468
2793.8665 5797217 5790963 5785300 5779872 5774824 5770800 5768469 5767899
2797.7234 5768279 5768224 5766479 5762548 5756843 5750316 5743867 5737930
2801.5803 5732434 5727038 5721424 5715464 5709248 5703020 5697080 5691630
2805.4373 5686636 5681783 5676650 5671037 5665257 5660094 5656387 5654461
2809.2942 5653798 5653221 5651496 5647952 5642741 5636593 5630317 5624401
2813.1511 5618932 5613790 5608863 5604116 5599508 5594901 5590093 5584956
2817.0081 5579555 5574127 5568925 5564037 5559327 5554538 5549489 5544223
2820.8650 5539007 5534187 5529970 5526281 5522764 5518944 5514450 5509211
2824.7219 5503491 5497775 5492546 5488057 5484225 5480669 5476903 5472544
2828.5789 5467477 5461846 5455916 5449887 5443780 5437512 5431082 5424752
2832.4358 5419019 5414345 5410768 5407696 5404070 5398917 5391958 5383907
2836.2927 5376195 5370243 5366686 5364997 5363731 5361216 5356294 5348727
2840.1497 5339121 5328507 5317847 5307687 5298040 5288481 5278395 5267305
2844.0066 5255201 5242695 5230889 5220937 5213485 5208309 5204369 5200294
2847.8635 5195026 5188263 5180478 5172581 5165446 5159601 5155154 5151900
2851.7205 5149458 5147368 5145169 5142503 5139235 5135485 5131527 5127590
2855.5774 5123720 5119834 5115950 5112427 5109960 5109278 5110661 5113604
2859.4343 5116877 5118994 5118860 5116211 5111648 5106254 5101062 5096664
2863.2913 5093123 5090160 5087432 5084727 5082001 5079283 5076554 5073681
2867.1482 5070411 5066427 5061429 5055241 5047926 5039898 5031962 5025211
2871.0051 5020742 5019248 5020660 5024016 5027708 5030008 5029679 5026352
2874.8621 5020502 5013078 5005022 4996964 4989213 4981947 4975391 4969805
2878.7190 4965304 4961677 4958389 4954805 4950506 4945485 4940109 4934879
2882.5759 4930174 4926123 4922649 4919583 4916747 4913944 4910938 4907484
2886.4329 4903447 4898895 4894075 4889253 4884514 4879690 4874494 4868739
2890.2898 4862479 4855945 4849330 4842637 4835742 4828653 4821738 4815706
2894.1467 4811254 4808604 4807225 4805952 4803468 4798871 4792053 4783690
2898.0037 4774901 4766739 4759746 4753779 4748160 4742125 4735318 4728070
2901.8606 4721255 4715792 4712066 4709647 4707510 4704583 4700282 4694671
2905.7175 4688217 4681392 4674427 4667361 4660243 4653220 4646413 4639699
2909.5745 4632658 4624801 4615938 4606399 4596910 4588178 4580477 4573519
2913.4314 4566676 4559363 4551338 4542756 4534022 4525601 4517882 4511101
2917.2883 4505286 4500211 4495418 4490355 4484610 4478112 4471154 4464213
2921.1453 4457706 4451814 4446511 4441717 4437444 4433792 4430805 4428323
2925.0022 4425953 4423247 4419986 4416404 4413222 4411409 4411783 4414587
2928.8591 4419263 4424505 4428648 4430227 4428499 4423705 4416956 4409794
2932.7161 4403647 4399392 4397194 4396607 4396850 4397111 4396788 4395641
2936.5730 4393832 4391843 4390261 4389487 4389477 4389694 4389313 4387635
2940.4299 4384500 4380435 4376446 4373521 4372119 4371941 4372113 4371671
2944.2869 4370056 4367308 4363884 4360223 4356376 4351917 4346174 4338619
2948.1438 4329180 4318363 4307171 4296869 4288682 4283426 4281171 4281092
2952.0007 4281669 4281238 4278685 4273901 4267734 4261466 4256146 4252177
2955.8577 4249338 4247122 4245066 4242870 4240311 4237149 4233204 4228558
2959.7146 4223709 4219488 4216728 4215867 4216723 4218548 4220323 4221113
2963.5715 4220347 4217940 4214262 4209995 4205892 4202531 4200129 4198544
2967.4285 4197454 4196620 4196054 4195950 4196431 4197269 4197821 4197275
2971.2854 4195101 4191446 4187213 4183702 4181970 4182221 4183565 4184341
2975.1423 4182879 4178340 4171180 4162945 4155501 4150138 4147059 4145546
2978.9993 4144609 4143655 4142686 4141955 4141398 4140356 4137830 4133110
2982.8562 4126290 4118269 4110189 4102716 4095676 4088319 4080035 4070997
2986.7131 4062280 4055318 4051076 4049481 4049501 4049822 4049635 4049000
2990.5701 4048565 4048864 4049729 4050247 4049299 4046317 4041762 4037016
2994.4270 4033786 4033340 4035982 4040963 4046793 4051743 4054321 4053601
2998.2839 4049344 4041971 4032406 4021811 4011253 4001409 3992432 3984080
3002.1409 3976055 3968349 3961384 3955854 3952395 3951296 3952371 3954950
3005.9978 3957907 3959767 3959029 3954748 3947129 3937615 3928218 3920373
3009.8547 3914140 3908442 3902273 3895939 3891226 3890197 3893484 3899459
3013.7117 3905094 3907942 3907777 3906621 3907160 3910782 3916710 3922765
3017.5686 3927023 3929004 3929558 3929726 3929642 3928415 3925048 3919578
3021.4255 3913445 3908752 3906930 3907801 3909720 3910644 3909365 3906067
3025.2825 3901955 3898363 3896007 3894727 3893582 3891012 3884992 3873520
3029.1394 3855646 3832720 3808906 3790136 3781611 3785163 3798182 3814960
3032.9963 3829715 3839374 3844433 3847578 3851277 3856100 3860721 3863260
3036.8533 3862770 3859825 3856012 3852907 3851301 3851069 3851561 3852141
3040.7102 3852520 3852769 3853087 3853521 3853848 3853692 3852815 3851282
3044.5671 3849290 3846682 3842538 3835312 3823705 3807882 3790227 3774939
3048.4241 3766408 3767103 3776155 3789525 3801823 3808835 3809353 3805236
3052.2810 3799701 3794928 3790594 3784323 3773791 3759014 3743183 3731312
3056.1379 3727500 3732500 3743163 3754068 3760329 3759935 3754383 3747392
3059.9949 3742542 3741164 3741588 3740135 3733305 3719941 3702098 3684054
3063.8518 3670042 3662152 3659747 3660684 3663321 3667727 3675206 3686603
3067.7087 3700843 3714916 3725378 3730197 3729633 3725642 3720428 3715288
3071.5657 3710419 3705516 3700433 3695371 3690607 3686171 3681816 3677229
3075.4226 3672198 3666580 3660169 3652754 3644428 3635891 3628406 3623254
3079.2795 3621005 3621133 3622308 3623229 3623432 3623505 3624547 3627248
3083.1365 3631232 3635104 3637166 3636320 3632595 3627030 3621057 3615856
3086.9934 3612041 3609788 3609143 3610172 3612779 3616367 3619723 3621355
3090.8503 3620171 3616012 3609553 3601564 3592080 3580247 3565173 3547306
3094.7073 3529265 3515239 3509052 3511977 3521724 3533336 3541497 3542908
3098.5642 3537417 3527490 3516606 3507630 3501965 3499661 3500063 3502467
3102.4211 3506391 3511411 3516802 3521325 3523471 3522145 3517429 3510877
3106.2781 3504991 3502061 3503019 3507033 3512034 3515796 3516847 3514799
3110.1350 3510140 3503870 3497180 3491088 3485936 3480943 3474375 3464589
3113.9919 3451516 3437438 3426131 3420607 3420958 3424063 3425685 3423618
3117.8489 3419474 3417531 3421263 3430049 3438692 3440386 3431239 3413229
3121.7058 3393466 3380190 3378084 3385869 3397498 3405944 3407103 3401564
3125.5627 3393553 3388115 3388405 3394583 3404565 3415729 3426239 3435155
3129.4197 3441553 3443674 3439157 3426493 3406793 3384404 3365549 3355502
3133.2766 3355965 3364309 3375182 3383442 3386579 3385293 3382223 3379993
3137.1335 3379891 3381768 3384754 3387977 3390788 3392609 3392828 3391022
3140.9905 3387331 3382597 3378065 3374778 3373087 3372569 3372355 3371606
3144.8474 3369851 3367053 3363480 3359490 3355371 3351238 3347037 3342658
3148.7043 3338133 3333809 3330366 3328583 3328939 3331277 3334756 3338165
3152.5613 3340433 3341036 3340078 3338020 3335292 3332039 3328170 3323619
3156.4182 3318596 3313632 3309372 3306261 3304351 3303321 3302686 3302026
3160.2751 3301095 3299801 3298141 3296166 3294009 3291892 3290058 3288633
3164.1321 3287535 3286505 3285252 3283618 3281624 3279404 3277069 3274650
3167.9890 3272112 3269447 3266725 3264109 3261804 3259983 3258686 3257733
3171.8459 3256751 3255374 3253546 3251671 3250325 3249565 3248273 3244208
3175.7029 3235120 3220459 3202596 3186465 3177475 3178744 3189354 3204767
3179.5598 3219211 3228522 3231717 3230500 3227328 3223562 3218941 3212521
3183.4167 3204132 3195128 3187885 3184453 3185368 3189434 3194534 3198828
3187.2737 3201534 3202897 3203544 3203820 3203598 3202586 3200794 3198714
3191.1306 3197044 3196206 3196032 3195866 3194934 3192655 3188639 3182497
3194.9875 3173825 3162578 3149671 3137245 3128157 3124761 3127669 3135313
3198.8445 3144674 3152770 3157982 3160459 3161481 3162362 3163643 3165007
3202.7014 3165778 3165532 3164415 3163052 3162212 3162420 3163622 3164960
3206.5583 3164795 3161155 3152654 3139569 3124439 3111535 3105133 3107264
3210.4153 3116247 3127034 3133493 3131492 3121053 3106293 3093208 3086631
3214.2722 3088133 3095869 3106065 3114959 3120030 3120228 3115662 3107376
3218.1292 3097358 3088387 3083325 3083995 3090294 3100226 3110908 3119960
3221.9861 3126392 3130540 3133243 3134957 3135370 3133720 3129483 3122934
3225.8430 3115206 3107811 3101920 3097839 3095025 3092612 3090085 3087608
3229.7000 3085791 3085111 3085565 3086853 3088949 3092416 3098010 3105738
3233.5569 3114146 3120633 3122789 3119936 3113702 3107150 3102993 3102109
3237.4138 3103325 3104455 3103799 3101099 3097494 3094719 3094083 3095678
3241.2708 3098051 3098461 3093847 3082387 3065034 3046054 3031828 3028143
3245.1277 3037357 3057099 3081393 3103551 3119060 3126870 3128687 3127200
3248.9846 3124595 3122027 3119751 3117285 3113394 3106346 3094889 3079629
3252.8416 3063726 3051929 3048177 3053212 3063989 3075431 3083404 3086827
3256.6985 3087566 3088405 3090821 3094186 3096789 3097587 3097208 3097481
3260.5554 3099986 3104823 3110458 3114667 3115854 3113879 3110026 3106237
3264.4124 3104138 3104374 3106493 3109355 3111730 3112796 3112347 3110777
3268.2693 3108957 3108023 3108941 3111815 3115271 3116536 3112608 3102123
3272.1262 3086725 3070742 3059029 3054242 3055462 3059222 3062222 3063673
3275.9832 3065494 3070306 3078927 3089440 3098540 3104007 3106242 3107683
3279.8401 3110665 3115526 3120436 3122974 3122095 3118984 3116276 3116360
3283.6970 3120034 3126263 3132904 3137725 3139133 3136505 3130271 3121826
3287.5540 3113166 3106149 3101652 3099147 3097098 3094032 3089620 3085013
3291.4109 3082212 3082935 3087729 3095828 3105663 3115535 3124042 3130216
3295.2678 3133572 3134251 3133093 3131439 3130587 3131181 3132941 3134930
3299.1248 3136171 3136163 3135002 3133124 3130970 3128825 3126905 3125525
3302.9817 3125151 3126252 3128988 3132891 3136690 3138485 3136347 3129223
3306.8386 3117761 3104513 3093205 3087258 3088220 3094977 3104205 3111876
3310.6956 3115075 3113216 3108127 3103039 3101055 3103833 3111035 3120695
3314.5525 3130220 3137488 3141555 3142725 3142105 3140960 3140203 3140203
3318.4094 3140844 3141711 3142271 3142002 3140497 3137563 3133316 3128221
3322.2664 3123042 3118681 3115916 3115137 3116186 3118421 3121004 3123279
3326.1233 3125037 3126492 3127996 3129711 3131492 3133059 3134311 3135472
3329.9802 3136888 3138583 3139938 3139820 3137147 3131530 3123491 3114098
3333.8372 3104300 3094566 3085153 3076812 3071243 3070716 3076882 3089483
3337.6941 3105901 3121989 3133790 3139189 3138591 3134387 3129650 3126813
3341.5510 3126913 3129535 3133283 3136476 3137805 3136778 3133779 3129746
3345.4080 3125608 3121822 3118284 3114674 3110970 3107756 3106064 3106831
3349.2649 3110320 3115857 3122070 3127457 3130941 3132092 3130925 3127512
3353.1218 3121765 3113638 3103608 3093038 3083981 3078386 3077138 3079572
3356.9788 3083826 3087796 3090057 3090194 3088479 3085376 3081326 3076893
3360.8357 3072884 3070042 3068397 3066837 3063487 3056856 3047038 3036047
3364.6926 3026916 3022135 3022470 3026921 3033735 3041596 3050150 3059596
3368.5496 3069854 3080069 3088859 3095044 3098251 3098929 3097831 3095434
3372.4065 3091770 3086770 3080803 3074906 3070472 3068528 3069109 3071163
3376.2634 3073076 3073535 3072183 3069730 3067485 3066647 3067746 3070444
3380.1204 3073674 3075959 3075768 3071895 3063849 3052175 3038532 3025413
3383.9773 3015504 3010892 3012367 3019091 3028786 3038456 3045485 3048657
3387.8342 3048554 3046942 3045336 3043546 3039304 3029529 3012710 2990971
3391.6912 2970247 2958019 2959569 2974815 2997618 3018206 3027573 3021637
3395.5481 3003036 2979695 2960990 2953523 2958594 2972449 2988869 3002439
3399.4050 3010702 3014253 3015190 3015245 3014873 3013666 3011433 3008883
3403.2620 3007342 3007774 3009961 3012521 3013757 3012712 3009714 3006090
3407.1189 3003340 3002329 3002925 3004214 3005052 3004648 3002902 3000385
3410.9758 2998020 2996644 2996667 2997966 2999992 3001979 3003165 3003003
3414.8328 3001353 2998541 2995075 2990984 2985097 2974926 2957630 2931853
3418.6897 2899440 2865781 2838217 2823135 2823338 2837126 2859514 2884693
3422.5466 2908243 2928007 2943547 2954991 2962231 2964966 2963317 2958390
3426.4036 2952216 2947002 2944124 2943482 2943651 2942758 2939572 2934146
3430.2605 2927711 2921949 2918172 2916868 2917734 2919993 2922748 2925228
3434.1174 2926952 2927831 2928118 2928173 2928180 2928074 2927762 2927411
3437.9744 2927354 2927440 2926240 2920917 2908316 2887006 2859151 2830858
3441.8313 2810339 2804323 2814230 2834044 2851378 2852014 2826483 2775755
3445.6882 2712837 2658577 2632997 2646284 2694223 2760652 2825458 2873506
3449.5452 2899691 2908131 2907199 2904180 2902537 2902342 2902293 2901365
3453.4021 2899254 2896053 2891953 2887270 2882538 2878352 2875045 2872545
3457.2590 2870561 2868815 2866972 2864238 2859091 2849712 2835158 2816650
3461.1160 2797990 2784536 2780945 2788767 2805183 2823748 2836992 2839719
3464.9729 2831420 2816510 2802242 2795329 2798987 2811835 2829025 2844819
3468.8298 2855190 2859211 2858730 2856746 2855429 2854831 2852910 2846855
3472.6868 2835022 2818412 2800820 2787452 2782631 2787778 2800702 2816573
3476.5437 2830015 2837159 2836545 2828473 2813470 2791197 2760917 2723468
3480.4006 2683335 2648852 2629553 2631737 2654901 2691496 2730349 2761601
3484.2576 2780049 2785232 2779176 2764315 2743362 2720633 2702639 2696296
3488.1145 2705385 2727853 2756321 2781834 2798421 2805450 2806490 2805900
3491.9714 2805678 2804478 2798906 2785876 2764622 2737622 2710297 2689554
3495.8284 2681401 2688334 2707757 2732599 2754149 2765586 2763981 2749584
3499.6853 2723305 2684873 2633633 2571691 2506774 2451865 2420839 2422414
3503.5422 2456211 2513358 2580829 2646248 2700116 2735166 2745245 2726388
3507.3992 2680300 2617371 2555617 2514478 2506377 2531176 2577114 2627612
3511.2561 2669579 2698276 2716593 2730418 2743855 2757231 2768217 2774276
3515.1130 2774291 2768561 2757874 2742982 2725119 2706955 2692666 2686188
3518.9700 2688125 2693234 2690818 2668991 2621269 2551831 2475814 2413530
3522.8269 2381213 2383266 2410350 2444251 2466661 2467056 2445961 2412855
3526.6838 2380798 2360938 2359248 2376087 2407747 2448658 2493262 2537196
3530.5408 2577865 2614468 2647359 2676643 2700446 2714012 2710907 2686599
3534.3977 2642818 2589740 2543673 2520480 2528067 2562415 2609734 2653534
3538.2546 2682318 2693469 2691653 2683582 2672895 2658081 2634019 2595476
3542.1116 2540334 2471016 2393900 2317379 2249546 2196433 2161434 2146020
3545.9685 2151129 2178028 2227551 2297610 2380337 2461114 2521251 2544142
3549.8254 2522407 2462384 2383244 2310670 2267784 2267339 2308240 2377289
3553.6824 2454854 2522026 2566756 2586894 2588985 2583182 2576700 2569558
3557.5393 2555546 2528077 2486877 2440317 2401123 2378311 2371368 2371073
3561.3962 2365960 2348923 2318599 2275072 2214585 2128930 2011116 1863462
3565.2532 1702036 1553990 1449227 1410924 1448977 1557886 1718598 1903436
3569.1101 2083236 2235010 2347258 2420321 2461774 2480130 2481113 2468300
3572.9670 2446063 2421000 2399994 2386784 2380530 2377908 2376590 2376554
3576.8240 2378018 2378585 2373431 2359424 2339616 2323217 2319639 2330857
3580.6809 2348651 2359769 2355294 2336373 2311068 2284492 2250469 2192402
3584.5378 2093921 1952061 1783442 1619118 1491943 1424945 1426899 1494691
3588.3948 1617243 1776673 1947454 2098280 2199803 2235623 2209312 2141695
3592.2517 2059470 1982826 1920224 1872373 1840007 1827720 1840677 1877904
3596.1086 1928932 1977296 2008337 2015451 2001055 1973221 1941730 1915968
3599.9656 1904167 1912238 1942010 1990445 2050978 2115765 2176486 2223115
3603.8225 2243243 2224970 2163056 2063741 1943457 1821543 1712733 1625564
3607.6794 1566924 1546188 1572002 1642106 1735045 1813727 1842156 1805392
3611.5364 1718813 1619946 1548627 1528643 1560995 1629194 1709383 1778040
3615.3933 1815492 1808072 1751382 1653529 1534940 1423116 1344402 1316844
3619.2502 1346839 1429490 1551000 1691989 1831540 1951645 2040717 2094669
3623.1072 2115388 2107970 2078187 2030387 1965165 1877297 1756425 1593069
3626.9641 1389143 1167271 971269 853889 855711 985490 1212692 1476902 1710092
3631.3032 1861690 1915666 1893070 1839878 1805878 1823701 1896844 2001521
3635.1602 2100748 2163239 2177547 2154904 2120610 2099769 2105298 2133703
3639.0171 2169280 2193266 2192998 2167304 2126587 2088129 2068429 2075096
3642.8740 2101216 2124909 2115517 2045295 1902347 1698590 1467639 1252031
3646.7310 1085311 978425 918414 880524 846579 818289 817335 872597 1002785
3651.0701 1204669 1452217 1704675 1917712 2053201 2087235 2017548 1869015
3654.9270 1692178 1550273 1496568 1552040 1696300 1878440 2042419 2152417
3658.7839 2204097 2217595 2219759 2228348 2246728 2268653 2286425 2295984
3662.6409 2297329 2292680 2285003 2276953 2268863 2255782 2226086 2164366
3666.4978 2058322 1905701 1716858 1511835 1315147 1152241 1048233 1025336
3670.3547 1095275 1247975 1443976 1619248 1705101 1656048 1471950 1202400
3674.2117 930030 739932 688477 784338 988643 1233301 1449478 1594166 1663481
3678.5508 1687312 1709072 1761884 1853762 1968123 2076471 2153961 2189289
3682.4077 2186200 2159056 2126006 2101314 2087607 2070967 2023894 1918713
3686.2646 1746426 1529011 1314349 1153757 1075407 1071569 1108776 1153481
3690.1216 1194541 1246778 1334532 1468836 1635379 1800949 1932090 2012037
3693.9785 2045400 2050247 2045525 2042795 2045748 2054536 2069296 2089466
3697.8354 2109893 2117959 2095808 2028575 1915150 1775087 1645900 1569572
3701.6924 1573661 1656906 1788272 1921367 2016905 2060332 2064070 2053382
3705.5493 2045540 2036567 2004688 1927862 1802514 1649422 1501984 1385311
3709.4063 1301972 1235540 1169552 1107084 1074910 1107600 1222560 1404521
3713.2632 1611344 1797003 1934939 2025440 2083788 2120923 2133245 2109381
3717.1201 2046871 1963055 1889149 1850444 1847616 1854316 1834462 1767805
3720.9771 1665798 1566278 1510213 1515981 1568044 1626853 1652872 1629180
3724.8340 1569357 1507717 1479873 1505896 1584181 1695843 1813407 1907854
3728.6909 1952857 1929232 1831834 1676160 1497898 1340834 1236648 1188296
3732.5479 1169053 1140013 1075715 981010 887960 835823 848811 926415 1049918
3736.8867 1196307 1347316 1488904 1606894 1687665 1725750 1730474 1721702
3740.7437 1713763 1699054 1646769 1522506 1317888 1069297 850105 738031 775892
3745.0828 948391 1187591 1403072 1520449 1509721 1392009 1224025 1069147
3748.9397 969058 929289 925393 925823 917819 919793 971156 1104818 1319887
3753.2788 1573438 1798702 1939577 1979877 1948498 1897374 1867207 1864048
3757.1357 1862034 1829215 1757358 1674141 1629047 1663051 1783244 1959001
3760.9927 2140252 2283214 2366004 2386964 2353007 2271661 2154210 2024577
3764.8496 1921137 1883371 1928603 2034906 2145088 2193524 2141704 2001332
3768.7065 1830660 1705848 1683818 1777148 1953237 2155291 2330970 2452541
3772.5635 2520049 2550392 2562574 2568649 2572871 2574768 2570479 2551161
3776.4204 2502683 2411376 2275324 2113941 1967025 1880462 1885217 1981722
3780.2773 2138847 2307460 2440206 2507222 2502172 2439496 2347077 2257708
3784.1343 2200596 2193577 2238096 2319599 2414154 2498543 2558736 2592798
3787.9912 2607836 2613931 2618808 2625430 2632611 2637522 2638558 2636940
3791.8481 2635563 2634868 2627931 2598897 2528230 2404112 2234240 2050062
3795.7051 1898450 1822789 1841983 1937960 2058732 2136854 2116050 1974883
3799.5620 1737262 1465044 1235782 1115298 1136546 1292108 1540202 1818448
3803.4189 2059219 2204160 2218446 2103691 1903693 1695264 1562207 1561669
3807.2759 1700136 1933246 2189817 2405619 2547556 2617347 2638212 2636969
3811.1328 2631987 2628886 2619987 2585116 2496482 2331385 2090244 1809258
3814.9897 1555683 1402878 1396096 1527853 1737221 1933799 2033871 1991718
3818.8467 1813958 1554105 1292223 1108049 1056318 1151608 1367000 1646198
3822.7036 1923623 2144233 2276211 2314167 2275024 2190542 2099234 2038306
3826.5605 2035266 2099674 2217383 2351019 2449886 2468946 2390586 2237818
3830.4175 2068235 1947310 1913531 1956635 2024840 2058241 2026164 1942105
3834.2744 1846209 1770345 1714300 1651712 1558954 1441051 1332216 1271424
3838.1313 1274937 1328985 1406562 1490776 1582957 1689857 1804738 1902861
3841.9883 1957895 1965608 1953563 1966901 2040047 2175114 2341493 2494632
3845.8452 2599294 2642690 2632761 2587076 2521143 2441770 2346288 2225870
3849.7021 2070837 1876124 1645246 1391786 1138722 916525 759853 701120 759964
3854.0413 931685 1182083 1455697 1697156 1875425 1996033 2092131 2198672
3857.8982 2325884 2449565 2525042 2516012 2419498 2270574 2123452 2020706
3861.7551 1969998 1943154 1898452 1812317 1700227 1612751 1607760 1714588
3865.6121 1911193 2127920 2276283 2287789 2143842 1884041 1591317 1361585
3869.4690 1269493 1341501 1545338 1801091 2012563 2108165 2073026 1954932
3873.3259 1838996 1803893 1884270 2060064 2275594 2472042 2610723 2675478
3877.1829 2660957 2563738 2387217 2155160 1917995 1740208 1672964 1729217
3881.0398 1877683 2058465 2208748 2283478 2263911 2157224 1993428 1820969
3884.8967 1697154 1671053 1764019 1958469 2202694 2429821 2580718 2620354
3888.7537 2543741 2374132 2157187 1951449 1813629 1780523 1855091 2005734
3892.6106 2181652 2336889 2449247 2523106 2575737 2617423 2639265 2616916
3896.4675 2527700 2369676 2169723 1974407 1828240 1752205 1735626 1745995
3900.3245 1749783 1730362 1692236 1651305 1620881 1604873 1602092 1615640
3904.1814 1657367 1742286 1877037 2051735 2241755 2418154 2559364 2657157
3908.0383 2715173 2743421 2753153 2753958 2752405 2751325 2750187 2747259
3911.8953 2742446 2737898 2734452 2726010 2697511 2631195 2519627 2376966
3915.7522 2238536 2145534 2122668 2163287 2233054 2291033 2314655 2311847
3919.6091 2312283 2344164 2412612 2494021 2549290 2546571 2479226 2369475
3923.4661 2257768 2185280 2178290 2239873 2350218 2474352 2574748 2624870
3927.3230 2618405 2569531 2503477 2442319 2394359 2353555 2308848 2256501
3931.1799 2206563 2178901 2191636 2249936 2342461 2447195 2542191 2614244
3935.0369 2660912 2686469 2696237 2693824 2682416 2667440 2656661 2656082
3938.8938 2664063 2668560 2651138 2596967 2505472 2394930 2297273 2244915
3942.7507 2256089 2326151 2429181 2528942 2593743 2608178 2576655 2517938
3946.6077 2454424 2402241 2367201 2347643 2340792 2347292 2370515 2411716
3950.4646 2465607 2520682 2564740 2591668 2604316 2611289 2620216 2632587
3954.3215 2643765 2647512 2641185 2627780 2613951 2606057 2607059 2615634
3958.1785 2627060 2634894 2633031 2618170 2592130 2562508 2540346 2535199
3962.0354 2550181 2580197 2614730 2643541 2661585 2670148 2673912 2676479
3965.8923 2677655 2674222 2663294 2645557 2625939 2611143 2605665 2608967
3969.7493 2615701 2618915 2614197 2602107 2587406 2575727 2570028 2569241
3973.6062 2569866 2569172 2567555 2568347 2575313 2589711 2609041 2628254
3977.4631 2642442 2649137 2648857 2643925 2636744 2628819 2620946 2614006
3981.3201 2609387 2608543 2612033 2618859 2626749 2633262 2637016 2638246
3985.1770 2638358 2638826 2640111 2641211 2640046 2634474 2623477 2608009
3989.0339 2591116 2577128 2570094 2572006 2581628 2594626 2605188 2608520
3992.8909 2603068 2591303 2578589 2570664 2571022 2579511 2592781 2606195
3996.7478 2616046 2620933 2621734 2620490 2619041 2618190 2617717 2616981
##END= 
