##TITLE= INC35
##JCAMP-DX= 4.24
##DATA TYPE= INFRARED SPECTRUM
##ORIGIN= JASCO
##OWNER= 
##DATE= 22/04/12
##TIME= 11:34:55
##SPECTROMETER/DATA SYSTEM= 
##RESOLUTION= 
##DELTAX=   0.48211674
##XUNITS= 1/CM
##YUNITS= TRANSMITTANCE
##XFACTOR= 1.00000
##YFACTOR= 0.0001
##FIRSTX=   599.7532
##LASTX=  4000.1226
##NPOINTS=     7054
##FIRSTY=      0.92988
##MAXY=      1.03556
##MINY=      0.56476
##XYDATA= (X++(Y..Y))
599.7532 9299 9288 9263 9239 9224 9215 9205 9187 9162 9142 9137 9157 9204 9273
606.5029 9353 9432 9498 9541 9560 9559 9546 9533 9525 9524 9524 9522 9517 9514
613.2525 9517 9530 9545 9556 9555 9543 9526 9512 9505 9503 9500 9487 9463 9428
620.0021 9389 9353 9327 9316 9321 9338 9359 9375 9379 9368 9345 9315 9280 9243
626.7518 9201 9158 9116 9080 9052 9034 9024 9019 9020 9025 9035 9048 9060 9069
633.5014 9072 9069 9060 9044 9022 8997 8974 8958 8955 8965 8984 9003 9012 9001
640.2510 8965 8905 8829 8749 8676 8617 8569 8521 8462 8384 8291 8199 8127 8099
647.0007 8129 8218 8356 8518 8675 8805 8894 8946 8968 8971 8962 8947 8931 8919
653.7503 8914 8916 8919 8916 8901 8871 8827 8772 8705 8626 8532 8427 8315 8199
660.4999 8083 7972 7875 7810 7798 7860 8001 8208 8445 8672 8862 9006 9110 9188
667.2496 9251 9302 9327 9319 9301 9288 9277 9265 9251 9239 9233 9235 9243 9249
673.9992 9245 9230 9206 9182 9163 9151 9145 9142 9143 9152 9170 9196 9221 9239
680.7488 9243 9238 9232 9231 9241 9257 9274 9283 9282 9268 9244 9211 9173 9134
687.4985 9098 9069 9052 9045 9046 9051 9054 9053 9049 9043 9041 9045 9053 9061
694.2481 9062 9053 9037 9020 9009 9008 9014 9020 9015 8994 8955 8905 8854 8817
700.9977 8803 8818 8856 8908 8958 8992 9004 8996 8974 8946 8915 8884 8853 8825
707.7474 8806 8797 8798 8803 8804 8796 8777 8748 8713 8673 8632 8592 8559 8537
714.4970 8529 8532 8543 8558 8575 8594 8614 8631 8637 8628 8597 8546 8480 8409
721.2466 8342 8287 8253 8246 8273 8335 8422 8519 8608 8676 8721 8745 8759 8769
727.9963 8779 8787 8793 8794 8791 8789 8789 8792 8795 8795 8788 8771 8748 8723
734.7459 8701 8685 8674 8664 8650 8626 8591 8545 8490 8429 8363 8293 8216 8136
741.4955 8057 7994 7964 7986 8072 8219 8415 8634 8849 9037 9188 9302 9389 9457
748.2452 9510 9546 9560 9550 9519 9473 9420 9364 9304 9243 9184 9129 9085 9052
754.9948 9028 9007 8983 8953 8911 8859 8795 8721 8646 8576 8520 8477 8443 8409
761.7444 8369 8318 8255 8182 8098 8000 7888 7765 7642 7530 7442 7387 7370 7394
768.4941 7461 7569 7714 7887 8072 8253 8412 8539 8627 8680 8705 8712 8712 8709
775.2437 8704 8692 8671 8639 8595 8541 8479 8409 8330 8243 8146 8039 7923 7795
781.9933 7655 7504 7350 7209 7103 7058 7093 7215 7413 7661 7924 8169 8373 8527
788.7430 8634 8703 8747 8775 8791 8798 8796 8787 8775 8760 8744 8725 8702 8674
795.4926 8639 8601 8561 8524 8487 8448 8402 8348 8285 8216 8144 8071 7996 7915
802.2422 7825 7721 7602 7466 7315 7149 6973 6796 6632 6499 6416 6400 6454 6571
808.9919 6729 6897 7045 7147 7192 7179 7112 6999 6848 6671 6485 6313 6188 6140
815.7415 6192 6351 6605 6926 7275 7617 7922 8176 8376 8524 8627 8690 8718 8716
822.4911 8691 8649 8596 8534 8460 8371 8264 8138 7995 7844 7695 7563 7461 7400
829.2408 7388 7425 7511 7636 7791 7962 8137 8302 8446 8565 8656 8722 8770 8803
835.9904 8826 8840 8846 8842 8830 8812 8791 8768 8745 8723 8702 8684 8671 8663
842.7401 8658 8653 8642 8621 8590 8552 8513 8477 8445 8413 8378 8336 8287 8232
849.4897 8173 8110 8042 7967 7884 7796 7702 7604 7499 7387 7272 7162 7072 7016
856.2393 7008 7052 7146 7280 7442 7620 7803 7983 8151 8303 8434 8544 8631 8697
862.9890 8744 8774 8790 8797 8796 8790 8780 8764 8743 8715 8680 8636 8583 8521
869.7386 8454 8389 8333 8295 8282 8295 8334 8393 8464 8537 8602 8650 8679 8688
876.4882 8682 8664 8640 8612 8585 8558 8534 8511 8489 8463 8433 8398 8360 8320
883.2379 8279 8235 8185 8125 8054 7972 7881 7785 7689 7595 7504 7417 7332 7243
889.9875 7148 7043 6926 6798 6659 6511 6358 6205 6062 5942 5863 5841 5888 6008
896.7371 6197 6439 6713 6994 7261 7498 7699 7864 8000 8116 8218 8312 8399 8479
903.4868 8552 8617 8674 8722 8760 8788 8807 8819 8824 8827 8829 8829 8829 8829
910.2364 8828 8827 8826 8825 8823 8820 8815 8810 8804 8799 8795 8791 8787 8782
916.9860 8776 8767 8757 8746 8736 8728 8722 8717 8710 8701 8690 8679 8667 8655
923.7357 8639 8621 8597 8569 8536 8496 8449 8397 8345 8303 8280 8283 8310 8354
930.4853 8402 8444 8472 8481 8474 8453 8424 8390 8357 8324 8292 8257 8217 8170
937.2349 8117 8063 8016 7982 7968 7975 8001 8043 8095 8154 8216 8279 8343 8406
943.9846 8464 8517 8563 8601 8632 8655 8672 8685 8695 8703 8709 8712 8711 8704
950.7342 8692 8675 8654 8632 8612 8600 8598 8604 8617 8632 8647 8659 8667 8674
957.4838 8678 8680 8679 8676 8669 8658 8645 8628 8607 8581 8551 8517 8479 8439
964.2335 8398 8358 8318 8281 8246 8213 8182 8154 8125 8096 8063 8024 7979 7928
970.9831 7872 7812 7745 7671 7588 7496 7396 7293 7189 7087 6990 6899 6817 6746
977.7327 6692 6663 6666 6707 6787 6905 7054 7225 7407 7588 7761 7920 8062 8187
984.4824 8298 8395 8481 8556 8618 8669 8707 8735 8753 8764 8768 8765 8756 8740
991.2320 8719 8693 8663 8630 8595 8557 8518 8477 8436 8394 8352 8310 8268 8226
997.9816 8184 8142 8099 8054 8009 7963 7916 7867 7815 7763 7709 7658 7610 7569
1004.7313 7537 7513 7497 7488 7485 7487 7495 7508 7526 7547 7567 7584 7593
1010.9988 7594 7584 7562 7529 7483 7424 7354 7277 7195 7113 7036 6967 6909
1017.2663 6864 6827 6796 6762 6718 6657 6577 6476 6355 6219 6077 5937 5812
1023.5338 5714 5656 5648 5694 5794 5945 6137 6357 6591 6822 7036 7217 7356
1029.8014 7448 7492 7494 7467 7425 7386 7365 7376 7424 7511 7630 7769 7911
1036.0688 8042 8148 8221 8257 8253 8212 8136 8029 7902 7770 7652 7571 7547
1042.3364 7591 7705 7878 8090 8319 8540 8738 8901 9029 9126 9197 9250 9288
1048.6039 9315 9333 9342 9346 9345 9340 9332 9322 9309 9297 9286 9277 9268
1054.8715 9260 9252 9243 9236 9232 9229 9227 9223 9216 9206 9195 9183 9171
1061.1389 9161 9151 9143 9136 9129 9121 9112 9100 9086 9073 9061 9051 9043
1067.4065 9036 9029 9022 9016 9011 9007 9004 9001 8998 8994 8988 8980 8970
1073.6740 8958 8947 8938 8932 8927 8922 8915 8904 8889 8872 8853 8835 8819
1079.9415 8802 8783 8760 8735 8712 8694 8686 8690 8706 8731 8763 8800 8837
1086.2090 8874 8910 8943 8973 9000 9022 9038 9045 9041 9027 9004 8976 8947
1092.4766 8920 8897 8876 8858 8839 8819 8798 8776 8753 8730 8708 8687 8669
1098.7440 8652 8638 8625 8614 8604 8597 8591 8584 8577 8568 8558 8547 8538
1105.0116 8531 8527 8524 8519 8512 8501 8488 8475 8462 8451 8441 8432 8424
1111.2791 8415 8407 8398 8389 8379 8368 8354 8339 8323 8307 8292 8277 8264
1117.5466 8251 8237 8223 8209 8195 8183 8172 8161 8149 8135 8118 8098 8076
1123.8141 8052 8027 8003 7979 7957 7936 7917 7898 7878 7856 7831 7803 7773
1130.0817 7742 7711 7678 7643 7605 7563 7517 7469 7420 7370 7318 7263 7205
1136.3491 7143 7077 7006 6931 6853 6771 6686 6598 6510 6421 6334 6249 6169
1142.6167 6097 6038 6000 5987 6005 6054 6129 6223 6324 6421 6508 6581 6642
1148.8842 6692 6733 6768 6795 6814 6827 6837 6848 6861 6876 6889 6896 6894
1155.1517 6884 6871 6862 6867 6890 6934 6998 7076 7162 7244 7314 7361 7381
1161.4192 7374 7346 7308 7272 7251 7255 7288 7349 7429 7519 7606 7681 7737
1167.6868 7769 7777 7760 7718 7654 7569 7470 7360 7246 7136 7042 6978 6961
1173.9542 7001 7105 7265 7465 7680 7886 8063 8199 8289 8338 8358 8365 8377
1180.2218 8407 8460 8534 8617 8697 8763 8809 8833 8839 8829 8810 8784 8753
1186.4893 8718 8679 8636 8588 8535 8478 8418 8357 8297 8240 8186 8139 8097
1192.7568 8062 8031 8001 7966 7921 7861 7784 7692 7594 7497 7413 7350 7312
1199.0243 7301 7311 7334 7360 7378 7385 7379 7365 7353 7351 7367 7404 7461
1205.2919 7538 7629 7732 7844 7962 8084 8208 8330 8447 8556 8653 8738 8810
1211.5593 8866 8907 8932 8944 8944 8935 8917 8890 8853 8805 8744 8673 8592
1217.8269 8504 8408 8307 8200 8091 7980 7872 7765 7661 7558 7454 7345 7232
1224.0944 7113 6988 6861 6731 6601 6474 6353 6244 6153 6088 6054 6058 6098
1230.3619 6173 6272 6387 6505 6615 6708 6780 6828 6854 6862 6854 6835 6808
1236.6294 6774 6736 6696 6656 6621 6593 6575 6571 6579 6600 6631 6672 6720
1242.8970 6776 6840 6910 6986 7067 7153 7242 7334 7426 7514 7594 7664 7721
1249.1644 7765 7797 7817 7826 7825 7812 7789 7756 7714 7665 7614 7562 7512
1255.4320 7463 7414 7364 7311 7255 7194 7129 7058 6981 6896 6805 6710 6614
1261.6995 6523 6440 6372 6325 6307 6325 6383 6483 6620 6787 6970 7156 7328
1267.9670 7473 7584 7659 7704 7724 7722 7702 7665 7611 7542 7460 7370 7275
1274.2345 7177 7078 6980 6883 6788 6695 6605 6522 6450 6393 6355 6339 6346
1280.5021 6375 6422 6486 6562 6648 6746 6856 6979 7115 7262 7416 7572 7728
1286.7695 7881 8026 8160 8278 8377 8452 8500 8519 8510 8471 8407 8319 8214
1293.0371 8098 7977 7856 7741 7636 7543 7466 7410 7379 7381 7417 7489 7594
1299.3046 7729 7884 8050 8215 8373 8517 8646 8761 8864 8958 9042 9117 9182
1305.5721 9237 9281 9318 9347 9371 9388 9398 9404 9408 9411 9414 9417 9419
1311.8396 9419 9414 9405 9392 9374 9352 9326 9297 9266 9233 9201 9170 9139
1318.1072 9109 9077 9043 9008 8971 8934 8895 8856 8814 8769 8719 8664 8602
1324.3746 8534 8460 8380 8294 8204 8111 8021 7937 7864 7809 7774 7761 7771
1330.6422 7801 7848 7907 7974 8046 8118 8188 8256 8319 8379 8434 8482 8523
1336.9097 8556 8583 8605 8626 8648 8669 8687 8699 8704 8704 8699 8688 8669
1343.1772 8640 8601 8552 8497 8440 8389 8350 8328 8328 8350 8397 8464 8549
1349.4447 8643 8741 8839 8934 9025 9111 9192 9264 9327 9381 9426 9465 9496
1355.7123 9522 9542 9558 9568 9574 9576 9576 9573 9568 9561 9554 9545 9536
1361.9797 9525 9511 9494 9477 9460 9445 9433 9425 9418 9414 9411 9410 9407
1368.2473 9404 9398 9391 9381 9371 9362 9353 9346 9340 9334 9324 9310 9290
1374.5148 9267 9245 9227 9212 9198 9185 9170 9153 9134 9115 9095 9076 9058
1380.7823 9040 9021 9000 8976 8948 8917 8883 8848 8814 8781 8748 8713 8673
1387.0498 8631 8595 8570 8561 8563 8575 8591 8609 8624 8633 8635 8628 8614
1393.3174 8591 8557 8510 8453 8393 8338 8289 8243 8197 8142 8072 7983 7883
1399.5848 7785 7698 7619 7541 7461 7378 7294 7211 7128 7038 6938 6833 6736
1405.8524 6661 6614 6596 6606 6647 6721 6829 6965 7123 7294 7475 7659 7843
1412.1199 8025 8202 8373 8533 8681 8812 8924 9015 9083 9128 9154 9163 9153
1418.3875 9115 9043 8949 8863 8804 8769 8747 8732 8717 8698 8670 8631 8581
1424.6549 8527 8470 8409 8340 8261 8174 8081 7982 7872 7744 7592 7423 7255
1430.9225 7100 6960 6828 6703 6590 6502 6445 6421 6425 6466 6565 6747 6987
1437.1899 7202 7349 7447 7526 7607 7695 7786 7873 7946 8001 8036 8048 8036
1443.4575 7997 7935 7859 7780 7708 7652 7616 7602 7604 7609 7603 7578 7537
1449.7250 7486 7430 7371 7315 7269 7242 7242 7266 7310 7368 7434 7506 7584
1455.9926 7673 7779 7900 8019 8111 8172 8205 8213 8196 8152 8077 7974 7853
1462.2600 7727 7609 7509 7433 7390 7383 7408 7452 7505 7573 7664 7787 7940
1468.5276 8113 8287 8448 8590 8715 8829 8938 9037 9112 9148 9157 9154 9148
1474.7950 9135 9111 9070 9010 8940 8871 8806 8744 8678 8604 8518 8414 8289
1481.0626 8145 7989 7834 7693 7580 7502 7466 7472 7518 7600 7715 7855 8007
1487.3301 8149 8266 8355 8424 8479 8520 8537 8531 8509 8482 8451 8418 8385
1493.5977 8352 8320 8284 8237 8167 8073 7973 7884 7803 7716 7611 7488 7363
1499.8651 7249 7147 7046 6935 6812 6685 6567 6466 6383 6309 6240 6170 6102
1506.1327 6049 6027 6039 6082 6162 6282 6430 6593 6759 6930 7112 7310 7517
1512.4001 7707 7852 7940 7976 7973 7945 7897 7829 7741 7648 7583 7560 7572
1518.6677 7608 7665 7746 7869 8057 8309 8552 8714 8811 8883 8952 9029 9121
1524.9352 9228 9342 9446 9525 9581 9620 9649 9673 9692 9706 9719 9733 9752
1531.2028 9775 9802 9833 9866 9901 9933 9961 9985 10009 10035 10065 10099
1536.9882 10136 10177 10221 10271 10320 10353 10356 10342 10329 10320 10313
1542.2914 10309 10308 10307 10305 10295 10276 10250 10225 10206 10195 10188
1547.5947 10183 10177 10166 10147 10116 10076 10036 10003 9981 9967 9957 9946
1553.3801 9929 9901 9870 9844 9832 9829 9834 9843 9855 9867 9866 9827 9758
1559.6476 9711 9690 9678 9670 9665 9660 9657 9655 9653 9650 9646 9639 9632
1565.9152 9626 9623 9622 9625 9628 9631 9628 9617 9599 9581 9566 9554 9541
1572.1826 9526 9510 9494 9481 9471 9462 9451 9430 9393 9352 9319 9295 9275
1578.4502 9253 9228 9198 9167 9135 9103 9072 9040 9005 8966 8925 8881 8834
1584.7177 8783 8729 8670 8606 8539 8468 8396 8324 8252 8184 8122 8066 8018
1590.9852 7980 7952 7934 7928 7936 7957 7994 8043 8104 8172 8244 8317 8387
1597.2528 8451 8504 8545 8572 8584 8582 8566 8536 8494 8442 8379 8306 8224
1603.5203 8137 8050 7969 7897 7838 7795 7768 7759 7769 7798 7848 7917 8000
1609.7878 8091 8180 8260 8330 8390 8445 8493 8536 8571 8601 8626 8651 8684
1616.0553 8736 8809 8883 8938 8975 9004 9033 9063 9094 9125 9151 9174 9191
1622.3229 9203 9204 9190 9163 9133 9106 9081 9055 9025 8983 8923 8846 8757
1628.5903 8668 8584 8503 8422 8335 8243 8150 8063 7987 7925 7880 7858 7873
1634.8579 7954 8114 8309 8483 8631 8771 8912 9049 9172 9275 9358 9427 9486
1641.1254 9536 9577 9609 9636 9659 9681 9704 9726 9748 9770 9790 9805 9812
1647.3929 9808 9797 9786 9775 9768 9765 9764 9768 9776 9790 9814 9843 9846
1653.6604 9813 9784 9766 9755 9746 9740 9734 9729 9725 9723 9723 9723 9723
1659.9280 9724 9725 9727 9727 9725 9720 9710 9700 9693 9688 9685 9684 9682
1666.1954 9680 9679 9679 9680 9682 9685 9686 9685 9682 9675 9667 9657 9649
1672.4630 9643 9640 9642 9647 9654 9659 9658 9652 9644 9639 9636 9637 9639
1678.7305 9643 9645 9644 9639 9633 9629 9629 9632 9640 9651 9661 9658 9643
1684.9980 9631 9626 9625 9625 9624 9621 9616 9610 9606 9603 9603 9603 9602
1691.2655 9600 9597 9596 9596 9600 9605 9613 9622 9630 9632 9624 9612 9602
1697.5331 9597 9594 9593 9595 9596 9593 9585 9576 9571 9569 9568 9568 9568
1703.8005 9568 9567 9565 9561 9553 9543 9532 9522 9515 9510 9506 9503 9499
1710.0681 9496 9492 9490 9491 9493 9496 9500 9502 9503 9502 9501 9501 9504
1716.3356 9511 9520 9530 9535 9532 9523 9516 9510 9507 9506 9506 9508 9511
1722.6031 9514 9515 9514 9510 9504 9498 9493 9490 9490 9493 9497 9503 9509
1728.8706 9516 9522 9526 9526 9525 9524 9523 9524 9526 9528 9523 9508 9490
1735.1382 9475 9463 9454 9446 9440 9436 9437 9442 9449 9454 9454 9448 9441
1741.4056 9434 9429 9425 9422 9418 9416 9415 9416 9420 9425 9432 9437 9440
1747.6732 9440 9436 9430 9424 9420 9419 9420 9421 9420 9414 9405 9393 9383
1753.9407 9375 9370 9367 9366 9363 9358 9350 9342 9336 9331 9328 9325 9323
1760.2083 9322 9325 9330 9336 9339 9338 9335 9333 9333 9336 9341 9346 9350
1766.4757 9354 9357 9362 9367 9372 9376 9379 9383 9388 9396 9409 9423 9435
1772.7433 9440 9440 9436 9430 9423 9415 9406 9397 9391 9388 9388 9390 9392
1779.0107 9395 9395 9394 9389 9383 9376 9369 9361 9354 9346 9339 9333 9328
1785.2783 9323 9316 9307 9297 9285 9275 9268 9266 9269 9276 9286 9299 9314
1791.5458 9330 9345 9356 9361 9363 9363 9364 9366 9368 9369 9368 9365 9362
1797.8134 9361 9364 9370 9380 9390 9396 9398 9396 9391 9386 9381 9376 9372
1804.0808 9367 9362 9357 9355 9355 9359 9363 9368 9371 9372 9371 9369 9366
1810.3484 9362 9355 9348 9342 9336 9331 9327 9324 9322 9320 9319 9319 9320
1816.6158 9321 9323 9324 9327 9329 9333 9337 9341 9345 9348 9352 9355 9359
1822.8834 9364 9370 9378 9387 9397 9405 9409 9410 9410 9410 9410 9413 9416
1829.1509 9418 9416 9410 9402 9395 9392 9393 9398 9405 9410 9412 9410 9404
1835.4185 9396 9389 9383 9377 9370 9362 9352 9342 9335 9331 9328 9328 9328
1841.6859 9329 9331 9336 9343 9351 9353 9348 9337 9324 9313 9304 9297 9290
1847.9535 9284 9277 9269 9261 9254 9247 9241 9238 9236 9236 9236 9238 9242
1854.2209 9248 9258 9270 9284 9296 9305 9309 9311 9311 9312 9315 9320 9324
1860.4885 9325 9323 9319 9315 9313 9313 9315 9316 9316 9314 9311 9309 9309
1866.7560 9308 9308 9306 9304 9302 9302 9304 9307 9311 9313 9315 9314 9311
1873.0236 9307 9301 9296 9292 9290 9291 9296 9303 9312 9319 9322 9319 9309
1879.2910 9295 9282 9273 9271 9273 9277 9281 9284 9286 9287 9286 9284 9281
1885.5586 9279 9280 9284 9289 9292 9291 9283 9272 9263 9258 9257 9257 9253
1891.8260 9245 9236 9229 9230 9237 9249 9260 9265 9260 9249 9235 9224 9216
1898.0936 9213 9211 9207 9201 9194 9189 9188 9190 9194 9198 9201 9201 9202
1904.3611 9205 9210 9217 9225 9233 9239 9245 9250 9254 9256 9256 9253 9247
1910.6287 9242 9240 9242 9247 9255 9261 9265 9266 9266 9268 9272 9279 9287
1916.8961 9294 9297 9294 9284 9271 9258 9244 9231 9220 9210 9203 9200 9201
1923.1637 9202 9202 9199 9193 9188 9189 9198 9213 9232 9247 9253 9250 9240
1929.4312 9226 9212 9200 9192 9189 9189 9193 9196 9196 9190 9178 9163 9151
1935.6987 9142 9137 9130 9116 9094 9067 9039 9017 9007 9010 9023 9042 9058
1941.9662 9064 9053 9028 8997 8972 8956 8950 8952 8953 8948 8930 8899 8860
1948.2338 8821 8794 8786 8797 8820 8842 8854 8852 8843 8836 8838 8851 8872
1954.5012 8897 8925 8953 8982 9008 9026 9032 9027 9019 9013 9014 9020 9025
1960.7688 9025 9020 9016 9017 9028 9046 9067 9083 9089 9084 9071 9057 9050
1967.0363 9054 9068 9085 9096 9098 9090 9072 9044 9007 8963 8918 8881 8862
1973.3038 8866 8889 8917 8934 8930 8907 8881 8869 8883 8918 8957 8981 8975
1979.5713 8941 8891 8837 8786 8739 8695 8653 8619 8598 8594 8601 8609 8604
1985.8389 8581 8543 8501 8468 8453 8454 8463 8469 8464 8451 8436 8425 8421
1992.1063 8424 8432 8447 8472 8511 8560 8607 8642 8658 8660 8660 8669 8693
1998.3739 8726 8760 8790 8816 8845 8882 8929 8980 9029 9070 9102 9124 9139
2004.6414 9146 9146 9142 9139 9144 9159 9181 9200 9210 9211 9207 9204 9202
2010.9089 9199 9191 9180 9174 9185 9220 9273 9331 9379 9408 9421 9428 9438
2017.1764 9454 9470 9473 9457 9420 9366 9305 9247 9198 9164 9145 9140 9148
2023.4440 9167 9194 9228 9264 9299 9331 9359 9384 9407 9428 9444 9451 9449
2029.7114 9441 9431 9421 9409 9390 9359 9320 9278 9246 9231 9234 9254 9282
2035.9790 9313 9343 9369 9392 9409 9422 9430 9433 9431 9423 9408 9389 9366
2042.2465 9345 9329 9320 9321 9331 9347 9366 9386 9404 9418 9428 9432 9430
2048.5139 9419 9403 9386 9374 9369 9371 9375 9374 9364 9345 9320 9294 9274
2054.7815 9262 9259 9260 9262 9259 9254 9251 9255 9269 9293 9319 9340 9348
2061.0491 9344 9333 9323 9320 9323 9331 9338 9341 9342 9342 9343 9343 9341
2067.3167 9337 9334 9333 9337 9343 9345 9341 9328 9309 9290 9276 9270 9271
2073.5840 9275 9278 9281 9284 9290 9299 9306 9306 9296 9277 9255 9238 9233
2079.8516 9241 9260 9282 9302 9316 9323 9324 9320 9312 9300 9287 9276 9269
2086.1191 9268 9272 9276 9277 9272 9260 9245 9231 9223 9219 9219 9221 9223
2092.3867 9225 9230 9238 9246 9255 9260 9263 9263 9262 9260 9258 9254 9250
2098.6541 9244 9238 9227 9213 9196 9182 9178 9187 9207 9229 9245 9247 9239
2104.9216 9229 9224 9230 9243 9257 9265 9266 9262 9257 9255 9254 9253 9248
2111.1892 9240 9231 9224 9222 9227 9236 9246 9253 9254 9250 9242 9236 9235
2117.4568 9239 9246 9252 9251 9244 9233 9223 9219 9223 9233 9245 9251 9248
2123.7241 9236 9218 9200 9188 9187 9193 9202 9209 9209 9202 9190 9179 9170
2129.9917 9166 9169 9177 9188 9198 9200 9189 9165 9136 9114 9109 9126 9159
2136.2593 9195 9223 9236 9233 9221 9205 9188 9174 9163 9157 9157 9163 9170
2142.5269 9173 9170 9159 9145 9132 9123 9120 9120 9121 9120 9119 9121 9134
2148.7942 9161 9202 9251 9290 9305 9284 9228 9151 9073 9014 8983 8985 9016
2155.0618 9070 9136 9200 9246 9267 9266 9254 9248 9251 9253 9236 9194 9134
2161.3293 9076 9038 9031 9051 9089 9129 9161 9180 9187 9188 9194 9209 9236
2167.5969 9269 9296 9306 9291 9251 9196 9140 9098 9080 9083 9099 9116 9130
2173.8643 9141 9156 9176 9198 9210 9203 9178 9144 9117 9104 9106 9114 9121
2180.1318 9123 9124 9126 9127 9124 9109 9083 9050 9019 9000 8997 9010 9035
2186.3994 9069 9110 9155 9199 9236 9260 9266 9256 9233 9204 9179 9161 9155
2192.6670 9158 9168 9180 9189 9193 9191 9184 9172 9156 9141 9129 9127 9137
2198.9343 9156 9173 9176 9156 9114 9060 9009 8976 8966 8978 9005 9038 9071
2205.2019 9100 9122 9140 9155 9165 9170 9166 9153 9131 9107 9086 9075 9073
2211.4695 9075 9075 9071 9063 9054 9049 9050 9056 9065 9076 9090 9108 9130
2217.7371 9153 9173 9184 9185 9178 9169 9161 9156 9153 9149 9142 9133 9121
2224.0044 9107 9092 9077 9064 9056 9054 9056 9060 9062 9062 9060 9059 9060
2230.2720 9064 9068 9069 9067 9062 9060 9064 9075 9090 9104 9115 9121 9121
2236.5396 9116 9105 9087 9064 9040 9020 9009 9009 9016 9024 9027 9022 9014
2242.8071 9008 9008 9018 9032 9045 9051 9047 9039 9032 9029 9031 9034 9032
2249.0745 9026 9018 9014 9017 9027 9042 9054 9058 9056 9048 9039 9031 9024
2255.3420 9019 9013 9007 9003 9002 9003 9006 9006 9004 9001 9000 9002 9008
2261.6096 9013 9013 9006 8993 8978 8965 8956 8953 8953 8957 8964 8972 8980
2267.8772 8984 8981 8973 8961 8952 8949 8953 8963 8973 8980 8983 8983 8981
2274.1445 8979 8977 8975 8971 8965 8957 8951 8948 8950 8956 8962 8964 8961
2280.4121 8953 8943 8933 8926 8923 8923 8928 8934 8940 8943 8941 8931 8917
2286.6797 8901 8890 8884 8885 8888 8893 8896 8899 8901 8903 8904 8903 8898
2292.9473 8889 8879 8870 8865 8865 8868 8872 8874 8873 8870 8866 8862 8857
2299.2146 8850 8841 8831 8823 8817 8816 8818 8822 8827 8829 8830 8828 8825
2305.4822 8820 8815 8810 8806 8804 8806 8809 8811 8808 8800 8787 8776 8768
2311.7498 8767 8771 8777 8780 8778 8773 8767 8761 8755 8749 8742 8734 8728
2318.0173 8724 8724 8726 8729 8732 8735 8735 8734 8729 8722 8713 8705 8699
2324.2847 8695 8691 8685 8677 8667 8657 8650 8644 8641 8640 8639 8639 8638
2330.5522 8635 8629 8622 8614 8610 8610 8614 8619 8623 8623 8622 8618 8616
2336.8198 8613 8611 8610 8610 8611 8613 8613 8610 8603 8592 8582 8574 8570
2343.0874 8570 8571 8571 8567 8561 8555 8552 8555 8562 8572 8581 8589 8593
2349.3547 8593 8589 8581 8570 8557 8542 8525 8507 8488 8470 8459 8457 8464
2355.6223 8475 8482 8482 8473 8462 8452 8446 8440 8431 8418 8407 8402 8408
2361.8899 8424 8443 8456 8459 8452 8439 8427 8422 8426 8437 8450 8460 8463
2368.1575 8459 8450 8438 8428 8420 8415 8413 8415 8421 8428 8437 8445 8453
2374.4248 8459 8465 8470 8473 8474 8474 8473 8472 8473 8474 8476 8478 8478
2380.6924 8477 8474 8470 8467 8466 8467 8470 8474 8478 8479 8477 8473 8468
2386.9600 8463 8459 8457 8456 8455 8455 8454 8453 8451 8449 8446 8442 8438
2393.2275 8434 8431 8427 8424 8421 8417 8413 8408 8402 8394 8386 8379 8374
2399.4949 8371 8370 8370 8370 8371 8370 8368 8365 8359 8353 8347 8343 8341
2405.7625 8340 8340 8339 8335 8331 8326 8323 8321 8320 8321 8321 8321 8321
2412.0300 8319 8315 8308 8299 8291 8285 8282 8284 8287 8291 8292 8291 8288
2418.2976 8285 8281 8277 8273 8269 8267 8266 8266 8267 8268 8269 8268 8267
2424.5649 8265 8262 8259 8257 8256 8257 8258 8258 8256 8252 8248 8244 8242
2430.8325 8242 8242 8241 8240 8237 8233 8228 8223 8219 8215 8212 8210 8208
2437.1001 8204 8199 8192 8185 8179 8175 8175 8176 8177 8176 8171 8163 8152
2443.3677 8141 8131 8122 8117 8115 8117 8121 8125 8128 8127 8123 8117 8112
2449.6350 8107 8103 8101 8100 8100 8102 8105 8108 8109 8107 8103 8098 8094
2455.9026 8091 8090 8089 8087 8084 8079 8072 8067 8063 8064 8069 8077 8085
2462.1702 8091 8095 8094 8092 8090 8090 8091 8094 8098 8101 8102 8101 8098
2468.4377 8093 8088 8084 8082 8080 8080 8080 8080 8078 8076 8073 8069 8066
2474.7051 8062 8058 8053 8048 8043 8040 8038 8037 8035 8032 8026 8019 8013
2480.9727 8008 8007 8007 8008 8009 8011 8014 8019 8025 8029 8030 8027 8020
2487.2402 8013 8007 8004 8004 8006 8011 8018 8025 8031 8035 8036 8036 8035
2493.5078 8037 8040 8045 8050 8051 8049 8044 8039 8036 8038 8043 8051 8061
2499.7751 8071 8080 8089 8097 8105 8112 8117 8121 8124 8126 8129 8134 8142
2506.0427 8152 8163 8172 8180 8185 8188 8190 8192 8195 8200 8206 8213 8221
2512.3103 8228 8235 8242 8250 8260 8270 8279 8286 8292 8297 8304 8313 8325
2518.5779 8337 8347 8355 8360 8364 8369 8375 8383 8391 8400 8407 8414 8419
2524.8452 8424 8429 8433 8438 8445 8454 8465 8477 8489 8499 8507 8515 8521
2531.1128 8528 8536 8544 8552 8561 8571 8582 8594 8606 8617 8625 8629 8631
2537.3804 8633 8635 8640 8647 8656 8665 8673 8681 8690 8698 8707 8715 8722
2543.6479 8727 8730 8734 8737 8740 8744 8749 8756 8763 8771 8780 8787 8792
2549.9153 8796 8801 8805 8811 8816 8821 8825 8832 8840 8853 8867 8882 8894
2556.1829 8901 8903 8900 8896 8892 8889 8890 8893 8900 8909 8921 8932 8941
2562.4504 8946 8947 8945 8943 8942 8944 8949 8955 8961 8966 8969 8971 8972
2568.7180 8972 8973 8973 8972 8971 8968 8964 8960 8959 8961 8967 8977 8987
2574.9856 8995 8999 8999 8997 8994 8995 8999 9008 9018 9028 9034 9037 9036
2581.2529 9034 9032 9032 9037 9045 9056 9069 9082 9095 9105 9111 9112 9108
2587.5205 9103 9099 9099 9104 9113 9123 9132 9138 9142 9144 9144 9143 9141
2593.7881 9138 9136 9137 9143 9156 9171 9185 9193 9193 9187 9178 9170 9167
2600.0557 9167 9169 9170 9171 9173 9179 9188 9199 9210 9218 9222 9223 9221
2606.3230 9220 9218 9219 9221 9224 9229 9233 9237 9240 9242 9243 9244 9245
2612.5906 9246 9248 9251 9254 9258 9261 9264 9266 9267 9268 9269 9271 9273
2618.8582 9276 9279 9282 9285 9287 9289 9291 9292 9293 9294 9294 9293 9292
2625.1257 9291 9292 9294 9296 9297 9297 9297 9298 9302 9307 9312 9314 9315
2631.3931 9313 9310 9309 9308 9308 9307 9305 9303 9304 9305 9308 9310 9311
2637.6606 9311 9311 9312 9314 9317 9319 9320 9317 9314 9310 9306 9304 9303
2643.9282 9304 9306 9307 9308 9307 9305 9304 9305 9308 9313 9318 9323 9326
2650.1958 9328 9329 9329 9328 9327 9327 9327 9328 9329 9330 9329 9328 9326
2656.4631 9323 9321 9320 9320 9320 9321 9321 9321 9320 9319 9319 9320 9322
2662.7307 9326 9330 9333 9335 9337 9337 9337 9337 9338 9340 9342 9344 9345
2668.9983 9346 9345 9344 9343 9344 9347 9351 9355 9360 9362 9363 9362 9361
2675.2659 9360 9359 9358 9358 9356 9355 9353 9351 9351 9352 9355 9357 9359
2681.5332 9360 9360 9359 9358 9357 9356 9355 9355 9356 9358 9360 9363 9367
2687.8008 9372 9377 9382 9387 9391 9393 9396 9399 9403 9408 9414 9420 9425
2694.0684 9428 9431 9432 9435 9439 9445 9451 9458 9463 9465 9466 9465 9464
2700.3359 9465 9468 9474 9481 9487 9492 9494 9495 9494 9493 9492 9493 9495
2706.6033 9498 9501 9503 9505 9506 9507 9507 9506 9506 9506 9506 9509 9512
2712.8708 9516 9520 9521 9520 9518 9514 9511 9509 9508 9509 9511 9514 9516
2719.1384 9520 9523 9527 9532 9537 9541 9545 9547 9547 9547 9548 9550 9554
2725.4060 9559 9564 9568 9571 9574 9578 9582 9586 9591 9597 9603 9610 9617
2731.6733 9623 9627 9629 9630 9630 9631 9632 9635 9638 9642 9646 9649 9651
2737.9409 9652 9654 9655 9657 9659 9661 9662 9663 9664 9665 9666 9668 9671
2744.2085 9673 9676 9679 9681 9682 9683 9683 9683 9683 9684 9686 9689 9693
2750.4761 9697 9700 9702 9704 9704 9704 9705 9705 9705 9706 9706 9706 9706
2756.7434 9707 9707 9709 9711 9712 9713 9713 9714 9714 9716 9717 9718 9716
2763.0110 9713 9709 9705 9703 9703 9704 9706 9707 9707 9706 9705 9705 9705
2769.2786 9704 9704 9705 9706 9709 9712 9716 9719 9723 9725 9728 9730 9732
2775.5461 9734 9737 9739 9741 9743 9745 9746 9748 9749 9750 9752 9754 9756
2781.8135 9759 9762 9765 9768 9771 9774 9776 9779 9781 9783 9785 9786 9787
2788.0811 9787 9787 9787 9788 9789 9791 9793 9795 9799 9804 9809 9814 9818
2794.3486 9820 9822 9822 9824 9826 9829 9830 9830 9827 9823 9817 9813 9809
2800.6162 9809 9811 9815 9821 9826 9828 9828 9825 9822 9820 9819 9819 9820
2806.8835 9820 9819 9818 9817 9815 9812 9808 9803 9800 9799 9800 9802 9804
2813.1511 9804 9803 9801 9799 9798 9798 9801 9804 9808 9809 9808 9804 9797
2819.4187 9790 9784 9781 9780 9782 9784 9785 9784 9780 9775 9768 9763 9759
2825.6863 9756 9755 9753 9750 9744 9735 9724 9712 9701 9693 9686 9679 9670
2831.9536 9659 9645 9631 9619 9610 9605 9601 9596 9587 9573 9553 9530 9504
2838.2212 9477 9451 9428 9410 9399 9395 9399 9411 9428 9449 9472 9496 9520
2844.4888 9543 9566 9589 9610 9630 9646 9658 9666 9671 9674 9676 9680 9684
2850.7563 9688 9691 9692 9693 9693 9694 9697 9699 9702 9703 9702 9699 9696
2857.0237 9692 9690 9688 9686 9683 9679 9675 9672 9669 9666 9664 9662 9662
2863.2913 9663 9664 9665 9666 9665 9663 9660 9658 9656 9655 9654 9653 9651
2869.5588 9649 9648 9647 9647 9645 9643 9638 9633 9629 9626 9625 9626 9629
2875.8264 9632 9634 9635 9635 9634 9630 9626 9620 9614 9608 9604 9601 9598
2882.0938 9595 9590 9584 9579 9574 9570 9568 9567 9567 9568 9568 9567 9566
2888.3613 9564 9561 9558 9554 9551 9547 9543 9541 9540 9540 9542 9544 9546
2894.6289 9546 9544 9542 9539 9536 9534 9534 9534 9535 9536 9537 9538 9538
2900.8965 9539 9538 9538 9536 9534 9532 9530 9528 9525 9522 9518 9514 9513
2907.1638 9513 9513 9512 9508 9502 9494 9488 9484 9483 9483 9482 9480 9476
2913.4314 9472 9466 9461 9457 9453 9452 9452 9454 9455 9456 9456 9456 9455
2919.6990 9454 9453 9451 9450 9448 9449 9450 9452 9454 9455 9454 9451 9448
2925.9666 9445 9441 9437 9430 9420 9406 9390 9375 9363 9354 9347 9340 9331
2932.2339 9321 9309 9299 9290 9285 9282 9281 9281 9281 9282 9284 9286 9291
2938.5015 9296 9302 9309 9316 9322 9327 9332 9337 9342 9349 9357 9366 9375
2944.7690 9381 9385 9388 9392 9397 9406 9416 9428 9439 9447 9453 9457 9461
2951.0366 9464 9466 9467 9467 9467 9466 9466 9466 9464 9461 9456 9449 9440
2957.3040 9432 9424 9416 9408 9400 9390 9379 9367 9353 9339 9326 9315 9307
2963.5715 9300 9295 9291 9288 9287 9287 9290 9294 9298 9303 9307 9311 9315
2969.8391 9319 9322 9325 9328 9333 9340 9350 9361 9373 9384 9394 9401 9407
2976.1067 9411 9416 9420 9425 9429 9433 9436 9439 9442 9445 9449 9453 9457
2982.3740 9460 9463 9468 9476 9487 9498 9509 9516 9520 9521 9520 9519 9520
2988.6416 9521 9523 9525 9525 9524 9520 9513 9504 9492 9479 9466 9451 9436
2994.9092 9419 9399 9377 9351 9322 9289 9255 9221 9191 9168 9157 9157 9168
3001.1768 9187 9211 9236 9261 9284 9302 9314 9317 9312 9301 9287 9272 9261
3007.4441 9253 9250 9249 9251 9254 9260 9270 9283 9300 9318 9335 9350 9362
3013.7117 9372 9380 9385 9387 9386 9382 9377 9369 9360 9349 9336 9324 9314
3019.9792 9309 9310 9317 9328 9342 9357 9372 9385 9398 9411 9427 9445 9466
3026.2468 9488 9509 9527 9542 9554 9563 9571 9580 9588 9596 9602 9606 9607
3032.5142 9607 9608 9608 9608 9609 9610 9614 9621 9630 9640 9647 9651 9649
3038.7817 9644 9638 9631 9624 9618 9613 9609 9607 9607 9609 9613 9616 9619
3045.0493 9620 9620 9618 9617 9616 9616 9616 9615 9611 9606 9600 9596 9595
3051.3169 9597 9601 9605 9607 9607 9607 9607 9609 9612 9616 9619 9620 9620
3057.5842 9618 9618 9619 9621 9624 9628 9631 9635 9638 9643 9648 9655 9661
3063.8518 9668 9674 9677 9680 9681 9681 9682 9685 9690 9695 9700 9705 9709
3070.1194 9714 9719 9724 9728 9730 9729 9725 9719 9714 9712 9712 9716 9722
3076.3870 9729 9736 9740 9743 9742 9739 9735 9731 9727 9724 9721 9716 9710
3082.6543 9704 9700 9699 9703 9709 9715 9719 9720 9718 9715 9713 9714 9716
3088.9219 9720 9723 9726 9727 9728 9729 9732 9736 9742 9748 9754 9758 9761
3095.1895 9761 9761 9761 9761 9762 9762 9761 9758 9755 9751 9749 9747 9746
3101.4570 9746 9748 9753 9759 9766 9770 9770 9766 9759 9749 9740 9734 9730
3107.7244 9730 9732 9736 9741 9745 9747 9746 9742 9733 9721 9708 9699 9693
3113.9919 9691 9693 9695 9695 9694 9691 9688 9686 9683 9680 9677 9673 9670
3120.2595 9669 9669 9671 9672 9669 9663 9653 9640 9627 9618 9614 9615 9619
3126.5271 9623 9626 9627 9627 9628 9631 9636 9641 9645 9649 9652 9656 9661
3132.7944 9666 9670 9674 9676 9679 9681 9682 9683 9684 9685 9687 9690 9694
3139.0620 9696 9697 9697 9696 9696 9697 9699 9702 9705 9708 9710 9712 9714
3145.3296 9717 9722 9726 9730 9733 9735 9736 9737 9737 9737 9736 9733 9730
3151.5972 9727 9724 9724 9725 9728 9732 9735 9737 9740 9743 9746 9750 9752
3157.8645 9753 9751 9746 9741 9736 9733 9731 9731 9732 9734 9737 9741 9744
3164.1321 9745 9744 9741 9739 9738 9738 9740 9744 9748 9754 9759 9764 9765
3170.3997 9763 9759 9754 9751 9751 9753 9756 9758 9759 9760 9760 9761 9761
3176.6672 9760 9757 9755 9753 9753 9756 9761 9767 9771 9774 9773 9771 9767
3182.9346 9764 9763 9763 9764 9766 9767 9770 9773 9777 9781 9784 9785 9785
3189.2021 9785 9785 9788 9791 9795 9798 9798 9798 9798 9800 9804 9811 9817
3195.4697 9821 9822 9820 9816 9813 9812 9815 9820 9828 9835 9841 9846 9850
3201.7373 9851 9852 9851 9849 9845 9842 9839 9838 9840 9843 9847 9850 9852
3208.0046 9854 9855 9857 9859 9861 9862 9863 9864 9863 9863 9863 9863 9864
3214.2722 9866 9867 9869 9871 9874 9877 9882 9886 9891 9895 9899 9902 9905
3220.5398 9907 9909 9910 9910 9908 9905 9902 9899 9899 9901 9904 9908 9913
3226.8074 9917 9922 9928 9935 9941 9945 9945 9944 9941 9939 9938 9937 9935
3233.0747 9933 9930 9929 9928 9927 9925 9922 9919 9919 9921 9926 9930 9931
3239.3423 9927 9921 9913 9905 9899 9895 9894 9895 9898 9901 9901 9897 9889
3245.6099 9878 9868 9860 9855 9852 9849 9847 9845 9844 9843 9843 9842 9841
3251.8774 9839 9835 9831 9825 9818 9811 9806 9801 9800 9800 9803 9807 9811
3258.1448 9813 9812 9807 9798 9787 9777 9768 9763 9761 9762 9765 9767 9768
3264.4124 9767 9764 9762 9760 9760 9761 9762 9762 9760 9757 9754 9753 9753
3270.6799 9755 9757 9757 9756 9753 9749 9745 9742 9741 9742 9743 9744 9744
3276.9475 9744 9743 9742 9741 9740 9738 9735 9731 9727 9724 9722 9722 9722
3283.2148 9724 9726 9729 9730 9731 9730 9728 9724 9721 9719 9718 9719 9720
3289.4824 9721 9721 9720 9719 9718 9719 9721 9724 9726 9727 9726 9724 9722
3295.7500 9721 9722 9724 9727 9729 9730 9730 9730 9730 9730 9730 9729 9727
3302.0176 9724 9722 9721 9724 9728 9733 9737 9739 9740 9741 9742 9744 9745
3308.2849 9746 9748 9751 9757 9763 9769 9771 9770 9766 9762 9761 9764 9772
3314.5525 9781 9790 9796 9799 9799 9799 9800 9800 9800 9800 9797 9795 9793
3320.8201 9793 9794 9796 9796 9795 9792 9789 9787 9786 9786 9785 9784 9780
3327.0876 9774 9768 9762 9756 9751 9747 9742 9737 9731 9724 9716 9708 9702
3333.3550 9696 9690 9684 9677 9667 9657 9646 9637 9632 9629 9627 9626 9623
3339.6226 9619 9614 9607 9598 9590 9582 9575 9571 9568 9567 9566 9564 9561
3345.8901 9557 9553 9549 9546 9543 9538 9531 9522 9512 9504 9498 9495 9494
3352.1577 9496 9499 9502 9505 9506 9506 9504 9500 9495 9490 9486 9483 9482
3358.4250 9481 9480 9479 9478 9478 9480 9482 9483 9481 9477 9470 9463 9459
3364.6926 9457 9457 9459 9460 9460 9459 9457 9454 9451 9449 9447 9445 9442
3370.9602 9439 9437 9434 9434 9434 9436 9436 9435 9432 9427 9424 9422 9422
3377.2278 9423 9424 9423 9421 9419 9418 9417 9415 9413 9409 9405 9401 9399
3383.4951 9400 9401 9403 9403 9400 9396 9393 9392 9394 9398 9402 9404 9403
3389.7627 9400 9396 9392 9389 9386 9382 9379 9375 9373 9373 9377 9384 9392
3396.0303 9397 9397 9391 9381 9371 9364 9362 9363 9366 9367 9367 9368 9369
3402.2979 9371 9373 9373 9370 9365 9360 9357 9355 9353 9352 9350 9348 9347
3408.5652 9349 9353 9357 9358 9357 9352 9346 9342 9342 9347 9355 9365 9373
3414.8328 9375 9372 9365 9355 9347 9342 9339 9340 9341 9343 9347 9352 9358
3421.1003 9362 9363 9361 9356 9351 9347 9345 9345 9346 9346 9346 9345 9344
3427.3679 9344 9344 9344 9344 9343 9343 9343 9342 9339 9335 9330 9326 9322
3433.6353 9321 9322 9323 9325 9325 9326 9327 9329 9334 9339 9343 9344 9343
3439.9028 9339 9335 9331 9329 9329 9331 9334 9338 9340 9340 9338 9335 9331
3446.1704 9329 9329 9330 9329 9327 9324 9322 9322 9325 9328 9331 9331 9329
3452.4380 9324 9320 9316 9314 9312 9311 9311 9311 9313 9315 9318 9318 9317
3458.7053 9314 9311 9310 9310 9311 9313 9313 9312 9310 9308 9307 9307 9308
3464.9729 9311 9313 9316 9318 9318 9317 9313 9308 9305 9302 9301 9301 9299
3471.2405 9296 9292 9290 9289 9292 9297 9302 9305 9306 9303 9297 9290 9285
3477.5081 9283 9285 9289 9293 9295 9295 9292 9289 9288 9290 9295 9299 9301
3483.7754 9300 9297 9293 9289 9287 9288 9289 9290 9290 9289 9287 9286 9286
3490.0430 9288 9291 9292 9291 9288 9285 9282 9282 9283 9283 9281 9278 9274
3496.3105 9271 9271 9273 9278 9283 9289 9295 9299 9302 9301 9299 9295 9291
3502.5781 9288 9286 9286 9287 9288 9288 9286 9284 9282 9282 9283 9287 9290
3508.8455 9292 9291 9286 9280 9274 9270 9268 9267 9267 9268 9269 9271 9273
3515.1130 9275 9277 9279 9281 9283 9285 9286 9286 9285 9282 9278 9272 9267
3521.3806 9263 9262 9264 9268 9274 9280 9284 9288 9290 9290 9287 9284 9280
3527.6482 9278 9280 9283 9286 9287 9284 9280 9275 9271 9270 9271 9273 9275
3533.9155 9275 9275 9273 9272 9271 9271 9271 9270 9267 9263 9259 9257 9258
3540.1831 9263 9270 9278 9283 9284 9281 9276 9273 9271 9273 9278 9282 9284
3546.4507 9284 9280 9275 9271 9268 9266 9265 9264 9264 9264 9266 9269 9273
3552.7183 9275 9276 9274 9273 9272 9273 9275 9278 9279 9277 9272 9266 9258
3558.9856 9250 9245 9242 9244 9249 9257 9265 9270 9272 9271 9270 9271 9276
3565.2532 9284 9292 9295 9292 9283 9272 9264 9258 9256 9255 9256 9258 9261
3571.5208 9262 9262 9259 9256 9254 9253 9255 9257 9260 9263 9267 9270 9272
3577.7883 9273 9270 9265 9258 9252 9247 9247 9250 9256 9262 9267 9267 9265
3584.0559 9260 9257 9258 9266 9279 9295 9307 9311 9306 9294 9281 9269 9259
3590.3232 9255 9255 9260 9268 9276 9281 9283 9282 9281 9281 9281 9281 9278
3596.5908 9274 9270 9268 9269 9271 9273 9273 9272 9269 9267 9266 9265 9264
3602.8584 9263 9260 9256 9251 9248 9245 9245 9248 9256 9268 9282 9293 9299
3609.1260 9296 9288 9278 9270 9266 9268 9275 9285 9292 9294 9292 9286 9279
3615.3933 9271 9263 9257 9253 9254 9261 9271 9283 9293 9297 9296 9292 9286
3621.6609 9281 9277 9274 9273 9271 9269 9268 9267 9269 9272 9275 9277 9274
3627.9285 9265 9255 9251 9256 9263 9267 9269 9268 9267 9266 9266 9266 9264
3634.1960 9259 9254 9249 9245 9244 9245 9248 9251 9253 9256 9259 9264 9269
3640.4634 9274 9277 9278 9277 9276 9274 9273 9271 9269 9266 9265 9264 9265
3646.7310 9266 9268 9272 9280 9293 9307 9317 9315 9303 9290 9281 9276 9274
3652.9985 9273 9271 9271 9273 9277 9285 9290 9289 9282 9273 9264 9260 9259
3659.2661 9263 9267 9271 9271 9266 9259 9250 9244 9243 9246 9253 9261 9267
3665.5334 9269 9270 9270 9273 9278 9287 9296 9304 9306 9301 9290 9277 9265
3671.8010 9257 9251 9249 9250 9258 9274 9295 9309 9305 9294 9286 9283 9283
3678.0686 9284 9284 9280 9272 9262 9254 9248 9246 9247 9253 9262 9272 9281
3684.3362 9286 9285 9279 9271 9262 9255 9254 9260 9272 9285 9293 9296 9295
3690.6035 9292 9288 9283 9280 9278 9275 9273 9271 9269 9267 9263 9258 9252
3696.8711 9247 9245 9248 9254 9261 9267 9270 9270 9267 9264 9260 9256 9254
3703.1387 9252 9252 9254 9258 9262 9264 9265 9263 9261 9259 9258 9257 9257
3709.4063 9256 9256 9261 9273 9290 9308 9316 9312 9301 9289 9279 9273 9271
3715.6736 9271 9272 9271 9268 9264 9259 9255 9253 9251 9249 9246 9243 9241
3721.9412 9241 9246 9255 9268 9283 9298 9312 9321 9321 9312 9296 9277 9261
3728.2087 9249 9243 9242 9247 9257 9269 9280 9284 9279 9267 9255 9247 9248
3734.4763 9258 9272 9283 9285 9281 9277 9275 9276 9279 9282 9284 9285 9285
3740.7437 9282 9278 9273 9270 9270 9275 9288 9305 9311 9303 9293 9285 9280
3747.0112 9278 9277 9278 9279 9279 9278 9278 9282 9288 9298 9306 9309 9306
3753.2788 9300 9294 9290 9288 9287 9287 9284 9279 9273 9269 9269 9274 9281
3759.5464 9288 9291 9289 9284 9281 9279 9279 9281 9283 9283 9281 9276 9271
3765.8137 9266 9264 9263 9265 9267 9270 9273 9276 9276 9274 9271 9268 9267
3772.0813 9268 9269 9270 9271 9271 9270 9270 9270 9269 9267 9266 9265 9265
3778.3489 9266 9267 9267 9265 9263 9263 9263 9266 9270 9275 9281 9286 9289
3784.6165 9289 9286 9280 9272 9263 9254 9246 9242 9242 9246 9254 9262 9267
3790.8838 9269 9269 9268 9268 9269 9270 9268 9264 9261 9260 9265 9274 9283
3797.1514 9287 9286 9280 9274 9270 9270 9274 9284 9294 9299 9295 9287 9280
3803.4189 9275 9273 9272 9273 9274 9276 9279 9281 9282 9282 9280 9277 9272
3809.6865 9266 9261 9256 9254 9254 9255 9258 9262 9267 9273 9278 9281 9278
3815.9539 9270 9261 9256 9255 9258 9264 9271 9280 9288 9292 9290 9285 9280
3822.2214 9278 9278 9278 9276 9274 9270 9266 9264 9266 9271 9277 9280 9279
3828.4890 9273 9264 9255 9247 9244 9248 9256 9264 9270 9273 9275 9276 9277
3834.7566 9277 9275 9272 9268 9265 9264 9265 9268 9269 9269 9268 9266 9264
3841.0239 9263 9263 9263 9264 9265 9266 9267 9266 9265 9264 9262 9261 9259
3847.2915 9257 9255 9253 9253 9255 9260 9268 9279 9288 9293 9289 9274 9255
3853.5591 9248 9254 9263 9269 9271 9270 9268 9268 9269 9271 9272 9272 9269
3859.8267 9267 9265 9265 9268 9271 9273 9273 9271 9269 9267 9269 9272 9277
3866.0940 9281 9285 9289 9292 9296 9299 9297 9288 9273 9260 9250 9244 9242
3872.3616 9242 9246 9252 9259 9262 9262 9259 9257 9255 9255 9257 9262 9270
3878.6292 9280 9293 9305 9308 9302 9288 9274 9263 9255 9251 9250 9251 9256
3884.8967 9262 9268 9270 9268 9263 9259 9257 9256 9257 9260 9265 9272 9278
3891.1641 9284 9285 9283 9278 9272 9265 9257 9249 9244 9241 9241 9245 9252
3897.4316 9260 9269 9276 9281 9283 9281 9278 9275 9272 9272 9274 9279 9286
3903.6992 9293 9296 9296 9291 9285 9279 9274 9271 9269 9267 9264 9260 9257
3909.9668 9254 9254 9256 9259 9262 9265 9267 9268 9268 9266 9263 9259 9254
3916.2341 9252 9253 9255 9258 9259 9259 9258 9258 9258 9261 9264 9268 9271
3922.5017 9273 9275 9276 9276 9275 9273 9271 9268 9265 9262 9261 9263 9267
3928.7693 9272 9276 9276 9275 9273 9272 9275 9280 9284 9284 9281 9275 9269
3935.0369 9264 9261 9260 9261 9262 9263 9265 9265 9265 9264 9262 9260 9258
3941.3042 9257 9256 9256 9258 9261 9265 9269 9272 9274 9273 9270 9266 9262
3947.5718 9259 9258 9257 9257 9258 9257 9257 9256 9254 9252 9249 9247 9247
3953.8394 9248 9252 9258 9264 9269 9271 9270 9266 9260 9255 9254 9256 9262
3960.1069 9268 9274 9276 9274 9268 9260 9253 9247 9245 9246 9248 9250 9252
3966.3743 9252 9251 9251 9252 9253 9256 9258 9260 9260 9259 9256 9252 9249
3972.6418 9248 9250 9255 9261 9265 9267 9266 9264 9263 9263 9264 9263 9262
3978.9094 9260 9259 9258 9258 9258 9258 9259 9259 9261 9262 9263 9262 9260
3985.1770 9257 9254 9253 9254 9257 9261 9265 9268 9270 9271 9269 9266 9262
3991.4443 9258 9256 9254 9254 9254 9253 9252 9250 9248 9248 9249 9248 9246
3997.7119 9242 9238 9236 9237 9242 9249
##END= 
