##TITLE= INC6-29
##JCAMP-DX= 4.24
##DATA TYPE= INFRARED SPECTRUM
##ORIGIN= JASCO
##OWNER= 
##DATE= 22/04/14
##TIME= 11:56:06
##SPECTROMETER/DATA SYSTEM= 
##RESOLUTION= 
##DELTAX=   0.48211674
##XUNITS= 1/CM
##YUNITS= TRANSMITTANCE
##XFACTOR= 1.00000
##YFACTOR= 0.0001
##FIRSTX=   599.7532
##LASTX=  4000.1226
##NPOINTS=     7054
##FIRSTY=      0.78713
##MAXY=      1.12696
##MINY=      0.31996
##XYDATA= (X++(Y..Y))
599.7532 7871 7734 7584 7418 7235 7042 6843 6644 6446 6244 6034 5813 5590 5381
606.5029 5213 5114 5105 5197 5388 5662 5993 6346 6686 6981 7207 7357 7438 7464
613.2525 7450 7404 7326 7214 7074 6920 6769 6637 6525 6424 6317 6192 6047 5886
620.0021 5717 5547 5382 5228 5088 4960 4836 4706 4556 4383 4188 3985 3789 3614
626.7518 3466 3349 3264 3213 3200 3223 3281 3366 3473 3600 3749 3928 4147 4415
633.5014 4738 5116 5544 6008 6482 6936 7341 7679 7942 8132 8256 8323 8339 8311
640.2510 8245 8149 8031 7899 7757 7605 7440 7266 7092 6939 6826 6768 6768 6814
647.0007 6887 6967 7038 7096 7142 7181 7220 7263 7312 7367 7427 7488 7545 7588
653.7503 7613 7613 7590 7544 7484 7416 7348 7289 7244 7216 7200 7187 7168 7133
660.4999 7076 6993 6887 6764 6632 6497 6360 6213 6051 5875 5696 5527 5389 5308
667.2496 5339 5545 5835 5897 5726 5518 5358 5257 5203 5173 5137 5068 4961 4838
673.9992 4731 4664 4636 4623 4599 4555 4502 4457 4426 4404 4378 4349 4332 4352
680.7488 4431 4570 4753 4957 5156 5335 5492 5644 5825 6068 6395 6795 7227 7636
687.4985 7974 8222 8392 8526 8671 8863 9111 9397 9682 9927 10104 10208 10250
693.7660 10247 10214 10151 10056 9923 9749 9533 9280 9001 8717 8462 8265 8139
700.0335 8075 8042 8005 7948 7883 7850 7897 8060 8340 8705 9091 9430 9673 9806
706.7831 9852 9853 9849 9860 9885 9907 9914 9898 9859 9800 9724 9630 9521 9400
713.5328 9276 9159 9057 8974 8908 8854 8800 8739 8672 8605 8551 8520 8514 8522
720.2824 8525 8501 8440 8342 8216 8075 7930 7788 7654 7523 7390 7245 7082 6903
727.0320 6714 6530 6367 6240 6165 6147 6191 6288 6428 6592 6765 6932 7089 7239
733.7817 7393 7564 7763 7999 8269 8563 8860 9137 9371 9549 9671 9749 9800 9838
740.5313 9869 9895 9913 9923 9923 9913 9889 9853 9808 9766 9737 9727 9735 9754
747.2809 9775 9794 9805 9806 9791 9758 9708 9648 9586 9526 9463 9391 9311 9230
754.0306 9160 9108 9069 9033 8989 8938 8884 8837 8800 8767 8729 8683 8634 8590
760.7802 8561 8546 8539 8529 8507 8469 8420 8364 8305 8244 8182 8119 8056 7991
767.5298 7925 7856 7782 7706 7629 7555 7487 7427 7373 7324 7277 7233 7190 7149
774.2795 7110 7071 7032 6992 6954 6918 6885 6855 6825 6794 6762 6727 6692 6656
781.0291 6621 6589 6562 6540 6521 6503 6481 6452 6419 6384 6352 6326 6306 6289
787.7787 6272 6250 6223 6188 6148 6105 6058 6012 5966 5921 5877 5832 5787 5739
794.5284 5688 5634 5579 5522 5465 5408 5352 5297 5243 5187 5128 5068 5008 4952
801.2780 4902 4858 4822 4792 4770 4757 4753 4758 4772 4793 4825 4869 4928 5001
808.0276 5082 5166 5241 5301 5340 5358 5357 5342 5317 5287 5254 5217 5177 5130
814.7773 5075 5010 4937 4856 4773 4692 4619 4557 4508 4472 4454 4459 4497 4575
821.5269 4701 4874 5086 5322 5564 5793 5992 6152 6266 6332 6352 6333 6281 6205
828.2766 6113 6013 5911 5813 5724 5649 5592 5556 5540 5541 5552 5569 5590 5613
835.0262 5639 5669 5701 5734 5765 5793 5818 5840 5857 5867 5869 5859 5839 5808
841.7758 5768 5719 5660 5592 5515 5430 5339 5244 5147 5051 4958 4868 4782 4700
848.5255 4622 4548 4482 4425 4383 4359 4355 4373 4411 4466 4532 4603 4674 4741
855.2751 4803 4862 4921 4987 5061 5146 5243 5352 5473 5605 5746 5892 6040 6185
862.0247 6325 6453 6565 6656 6727 6777 6812 6834 6846 6847 6835 6807 6762 6702
868.7744 6633 6562 6495 6439 6397 6368 6349 6336 6322 6301 6270 6227 6175 6118
875.5240 6059 6003 5949 5898 5850 5802 5756 5711 5667 5623 5581 5542 5505 5472
882.2736 5442 5414 5388 5362 5337 5313 5292 5275 5264 5260 5263 5273 5286 5300
889.0233 5309 5312 5308 5300 5292 5287 5285 5286 5288 5290 5292 5297 5305 5314
895.7729 5322 5325 5321 5309 5292 5272 5251 5229 5206 5180 5149 5115 5080 5047
902.5225 5018 4994 4973 4954 4934 4911 4886 4859 4830 4799 4769 4740 4712 4686
909.2722 4659 4631 4601 4571 4544 4519 4499 4481 4464 4446 4426 4403 4377 4350
916.0218 4323 4295 4268 4240 4208 4171 4129 4086 4043 4003 3969 3938 3909 3881
922.7714 3854 3831 3812 3799 3793 3792 3794 3797 3802 3813 3833 3866 3911 3965
929.5211 4024 4084 4146 4210 4279 4351 4425 4498 4569 4636 4703 4770 4838 4905
936.2707 4972 5038 5106 5179 5256 5339 5425 5511 5595 5677 5758 5840 5921 6000
943.0203 6072 6135 6184 6219 6241 6251 6252 6245 6230 6210 6190 6177 6180 6203
949.7700 6250 6317 6396 6479 6560 6635 6705 6772 6839 6908 6982 7059 7139 7221
956.5196 7304 7387 7470 7552 7630 7704 7773 7838 7900 7961 8020 8076 8126 8166
963.2692 8195 8215 8230 8244 8261 8283 8311 8341 8372 8401 8427 8451 8472 8489
970.0189 8503 8512 8516 8519 8522 8530 8545 8567 8597 8631 8666 8700 8732 8761
976.7685 8787 8811 8831 8850 8868 8888 8910 8934 8959 8982 9001 9019 9036 9055
983.5181 9077 9101 9128 9155 9183 9211 9237 9262 9284 9305 9328 9354 9383 9412
990.2678 9440 9463 9481 9493 9501 9506 9507 9505 9501 9493 9483 9469 9452 9433
997.0174 9413 9392 9371 9349 9325 9300 9272 9243 9215 9188 9163 9140 9118 9097
1003.7670 9075 9052 9029 9006 8985 8966 8948 8930 8908 8877 8834 8772 8687
1010.0345 8575 8434 8273 8106 7954 7842 7787 7797 7865 7975 8107 8240 8361
1016.3021 8465 8551 8620 8675 8718 8751 8776 8793 8806 8816 8824 8833 8842
1022.5696 8848 8852 8851 8845 8836 8827 8821 8819 8818 8816 8811 8802 8789
1028.8372 8776 8765 8755 8746 8736 8723 8708 8693 8681 8670 8662 8652 8640
1035.1046 8626 8610 8594 8580 8566 8553 8539 8523 8506 8491 8477 8467 8457
1041.3722 8447 8433 8415 8394 8372 8351 8333 8315 8298 8278 8257 8234 8211
1047.6396 8191 8174 8158 8142 8124 8105 8083 8063 8044 8028 8016 8004 7991
1053.9072 7973 7950 7923 7896 7872 7851 7833 7815 7796 7774 7750 7725 7700
1060.1747 7674 7647 7620 7592 7564 7535 7504 7471 7433 7388 7335 7274 7207
1066.4423 7135 7059 6979 6895 6805 6708 6610 6513 6427 6357 6312 6295 6309
1072.7097 6349 6407 6472 6530 6570 6582 6562 6511 6434 6341 6239 6136 6035
1078.9773 5936 5836 5735 5633 5533 5437 5349 5270 5201 5142 5093 5054 5023
1085.2448 5000 4986 4981 4988 5006 5037 5079 5130 5191 5263 5347 5442 5547
1091.5123 5658 5775 5898 6030 6173 6321 6467 6600 6709 6795 6863 6923 6982
1097.7798 7044 7104 7158 7202 7236 7265 7292 7323 7363 7418 7493 7589 7706
1104.0474 7837 7971 8098 8211 8304 8374 8418 8435 8425 8393 8342 8280 8211
1110.3148 8136 8054 7962 7860 7748 7628 7504 7382 7261 7142 7024 6906 6786
1116.5824 6664 6538 6407 6272 6132 5988 5841 5695 5550 5408 5269 5132 4997
1122.8499 4864 4732 4604 4480 4364 4258 4164 4084 4016 3960 3915 3879 3851
1129.1174 3832 3822 3822 3832 3853 3883 3922 3971 4030 4098 4175 4261 4352
1135.3849 4448 4547 4651 4760 4876 4998 5125 5255 5385 5515 5643 5769 5895
1141.6525 6019 6142 6264 6386 6509 6638 6775 6923 7083 7256 7440 7634 7836
1147.9199 8045 8258 8470 8676 8870 9045 9199 9333 9450 9556 9657 9757 9861
1154.1875 9970 10085 10202 10320 10435 10545 10648 10742 10827 10903 10969
1159.4907 11028 11079 11121 11154 11177 11191 11199 11206 11213 11222 11233
1164.7941 11244 11253 11261 11267 11270 11269 11266 11261 11257 11254 11252
1170.0973 11250 11246 11241 11233 11225 11215 11203 11188 11167 11139 11103
1175.4006 11058 11006 10951 10900 10858 10831 10819 10823 10838 10862 10892
1180.7039 10925 10959 10992 11021 11044 11061 11070 11073 11070 11062 11052
1186.0072 11039 11026 11013 10999 10987 10975 10965 10955 10945 10933 10919
1191.3104 10902 10884 10865 10847 10830 10814 10800 10786 10772 10757 10742
1196.6138 10724 10705 10685 10663 10641 10618 10594 10571 10551 10533 10517
1201.9170 10501 10483 10462 10437 10409 10381 10354 10329 10305 10281 10257
1207.2203 10232 10204 10175 10144 10112 10078 10042 10003 9961 9915 9867 9818
1213.0057 9769 9720 9670 9618 9564 9509 9456 9406 9363 9326 9296 9273 9257
1219.2732 9245 9237 9231 9226 9220 9211 9198 9182 9161 9137 9109 9079 9047
1225.5408 9013 8978 8941 8901 8859 8815 8772 8730 8691 8652 8613 8571 8526
1231.8082 8478 8430 8382 8335 8290 8246 8202 8156 8110 8062 8014 7966 7916
1238.0758 7866 7815 7763 7712 7661 7610 7559 7509 7458 7406 7354 7299 7241
1244.3433 7181 7118 7052 6984 6915 6845 6777 6711 6651 6596 6546 6500 6456
1250.6108 6411 6366 6320 6273 6227 6184 6144 6110 6082 6058 6036 6015 5993
1256.8783 5970 5947 5925 5905 5889 5875 5864 5856 5850 5848 5848 5853 5859
1263.1459 5868 5876 5882 5884 5879 5866 5842 5808 5762 5710 5662 5631 5630
1269.4133 5673 5765 5910 6108 6349 6619 6898 7168 7416 7633 7813 7952 8047
1275.6809 8096 8101 8068 8003 7914 7810 7700 7596 7508 7445 7413 7418 7462
1281.9484 7546 7666 7819 8000 8200 8413 8630 8844 9051 9248 9431 9598 9746
1288.2159 9874 9983 10077 10158 10229 10291 10342 10381 10404 10411 10401
1293.5192 10374 10326 10251 10144 10008 9854 9702 9576 9497 9471 9496 9561
1299.3046 9654 9772 9910 10068 10237 10406 10558 10679 10761 10805 10815 10799
1305.0900 10762 10710 10648 10579 10507 10432 10355 10277 10196 10113 10032
1310.3933 9953 9880 9812 9749 9690 9632 9573 9510 9441 9364 9277 9178 9065
1316.6608 8938 8797 8643 8476 8301 8125 7959 7813 7696 7613 7568 7565 7605
1322.9283 7685 7801 7942 8098 8257 8411 8552 8674 8775 8853 8909 8945 8966
1329.1958 8976 8980 8981 8984 8991 9006 9031 9069 9121 9187 9265 9355 9455
1335.4634 9565 9682 9802 9921 10033 10137 10232 10318 10394 10456 10503 10538
1341.2488 10562 10579 10591 10598 10601 10598 10591 10581 10567 10550 10532
1346.5520 10514 10496 10479 10461 10444 10429 10415 10406 10399 10396 10393
1351.8553 10390 10384 10375 10364 10351 10337 10324 10310 10296 10280 10263
1357.1586 10245 10227 10208 10190 10170 10149 10125 10101 10077 10055 10033
1362.4619 10010 9987 9963 9943 9925 9911 9898 9886 9874 9863 9852 9844 9837
1368.7294 9831 9825 9819 9812 9805 9797 9790 9782 9772 9759 9742 9723 9703
1374.9969 9686 9673 9662 9651 9639 9624 9605 9584 9561 9537 9515 9495 9477
1381.2644 9460 9444 9426 9406 9384 9360 9336 9311 9287 9261 9232 9199 9163
1387.5320 9127 9096 9069 9045 9019 8989 8953 8913 8872 8831 8792 8752 8707
1393.7994 8656 8600 8544 8498 8466 8445 8428 8412 8391 8360 8317 8264 8208
1400.0670 8156 8108 8060 8010 7959 7908 7857 7809 7759 7706 7651 7596 7545
1406.3345 7497 7450 7399 7343 7282 7220 7157 7093 7027 6959 6890 6821 6753
1412.6021 6688 6625 6564 6503 6444 6384 6325 6267 6213 6164 6121 6079 6031
1418.8695 5972 5911 5862 5829 5809 5793 5780 5769 5759 5754 5756 5765 5782
1425.1371 5803 5830 5863 5902 5946 5991 6039 6091 6150 6220 6296 6370 6437
1431.4045 6497 6556 6619 6687 6756 6819 6871 6916 6963 7029 7133 7269 7398
1437.6721 7499 7579 7655 7739 7832 7932 8035 8136 8231 8321 8407 8487 8562
1443.9396 8630 8691 8745 8791 8831 8865 8895 8923 8948 8969 8984 8995 9003
1450.2072 9008 9010 9009 9005 8998 8990 8982 8975 8968 8959 8948 8936 8920
1456.4746 8903 8885 8867 8848 8826 8802 8778 8753 8727 8700 8672 8644 8617
1462.7422 8592 8569 8545 8518 8486 8452 8423 8398 8374 8350 8323 8293 8263
1469.0096 8232 8204 8176 8149 8122 8095 8069 8044 8023 8005 7988 7971 7953
1475.2772 7931 7905 7876 7847 7818 7788 7758 7726 7693 7661 7630 7601 7572
1481.5447 7541 7508 7473 7434 7393 7347 7299 7249 7198 7144 7084 7019 6954
1487.8123 6895 6842 6791 6732 6657 6565 6472 6387 6310 6237 6166 6098 6035
1494.0797 5984 5952 5956 6011 6124 6269 6416 6557 6709 6883 7069 7237 7363
1500.3473 7444 7493 7524 7545 7556 7558 7552 7541 7529 7518 7501 7466 7394
1506.6147 7297 7226 7189 7161 7130 7095 7059 7025 6989 6948 6898 6839 6775
1512.8823 6712 6654 6601 6552 6503 6452 6390 6310 6211 6116 6045 5998 5966
1519.1498 5936 5902 5849 5759 5626 5485 5384 5321 5275 5231 5184 5130 5069
1525.4174 5006 4950 4908 4883 4874 4877 4894 4923 4968 5027 5101 5188 5285
1531.6848 5393 5526 5707 5953 6240 6507 6720 6891 7041 7183 7319 7444 7557
1537.9524 7664 7795 8003 8301 8576 8740 8837 8931 9043 9160 9263 9345 9415
1544.2198 9487 9565 9643 9707 9752 9783 9808 9828 9846 9859 9867 9866 9859
1550.4874 9849 9837 9825 9812 9795 9770 9728 9666 9593 9529 9484 9451 9422
1556.7549 9388 9342 9273 9157 8978 8798 8671 8571 8478 8389 8302 8213 8117
1563.0225 8010 7887 7747 7594 7439 7298 7177 7077 6993 6917 6844 6761 6660
1569.2899 6544 6438 6364 6320 6295 6283 6285 6302 6333 6372 6417 6472 6556
1575.5575 6700 6911 7126 7278 7373 7443 7508 7577 7647 7716 7780 7837 7891
1581.8250 7942 7991 8036 8077 8113 8145 8172 8196 8215 8228 8234 8229 8214
1588.0925 8187 8151 8106 8055 7996 7932 7863 7793 7724 7662 7611 7576 7561
1594.3601 7573 7613 7682 7780 7902 8046 8204 8370 8538 8700 8853 8994 9123
1600.6276 9237 9336 9423 9498 9564 9622 9671 9712 9745 9772 9794 9811 9826
1606.8951 9838 9847 9853 9857 9859 9860 9859 9859 9860 9861 9861 9860 9856
1613.1626 9850 9845 9841 9838 9836 9831 9817 9792 9763 9742 9726 9713 9697
1619.4302 9677 9654 9630 9607 9585 9564 9540 9509 9472 9434 9401 9374 9351
1625.6976 9329 9308 9288 9271 9259 9252 9250 9249 9250 9253 9257 9264 9272
1631.9652 9280 9286 9292 9297 9306 9320 9346 9380 9407 9418 9420 9418 9417
1638.2327 9418 9421 9425 9429 9433 9434 9432 9430 9428 9431 9438 9450 9463
1644.5002 9475 9484 9489 9492 9497 9505 9515 9523 9529 9534 9539 9546 9555
1650.7677 9567 9583 9604 9629 9651 9648 9626 9613 9610 9611 9613 9616 9618
1657.0353 9619 9620 9619 9618 9617 9617 9618 9619 9618 9614 9607 9600 9597
1663.3027 9601 9609 9617 9625 9630 9635 9640 9646 9653 9662 9671 9681 9688
1669.5703 9692 9694 9697 9703 9712 9723 9732 9739 9743 9745 9744 9744 9748
1675.8378 9758 9769 9780 9790 9800 9808 9814 9820 9827 9834 9845 9857 9870
1682.1053 9884 9897 9908 9909 9897 9882 9880 9886 9894 9901 9909 9915 9920
1688.3728 9925 9928 9931 9933 9935 9939 9943 9949 9956 9963 9972 9981 9991
1694.6404 9999 10003 9997 9983 9973 9970 9973 9978 9983 9985 9979 9962 9947
1700.9078 9950 9960 9970 9976 9979 9978 9974 9967 9959 9950 9940 9930 9922
1707.1754 9916 9914 9913 9912 9910 9907 9901 9896 9890 9886 9880 9873 9863
1713.4429 9850 9833 9815 9802 9794 9793 9795 9796 9791 9774 9751 9733 9723
1719.7104 9716 9712 9706 9700 9690 9679 9667 9655 9645 9638 9633 9629 9623
1725.9779 9615 9606 9595 9584 9572 9560 9545 9530 9513 9498 9485 9473 9460
1732.2455 9446 9428 9405 9382 9370 9368 9368 9365 9357 9347 9336 9325 9316
1738.5129 9308 9301 9295 9290 9285 9280 9276 9272 9266 9259 9251 9241 9231
1744.7805 9221 9211 9201 9191 9182 9174 9166 9161 9157 9154 9153 9150 9145
1751.0480 9137 9126 9115 9105 9094 9084 9074 9065 9058 9054 9052 9051 9049
1757.3156 9043 9036 9028 9019 9012 9005 8999 8994 8991 8989 8989 8988 8986
1763.5830 8984 8981 8977 8973 8968 8963 8960 8957 8956 8956 8952 8946 8937
1769.8506 8926 8916 8909 8907 8913 8924 8933 8935 8933 8930 8927 8926 8926
1776.1180 8925 8922 8916 8907 8897 8887 8879 8874 8874 8877 8880 8883 8884
1782.3856 8883 8881 8878 8876 8874 8874 8874 8875 8875 8873 8870 8866 8860
1788.6531 8853 8844 8836 8828 8824 8825 8832 8842 8850 8852 8848 8841 8834
1794.9207 8831 8832 8837 8842 8845 8845 8841 8837 8835 8834 8836 8839 8841
1801.1881 8843 8846 8848 8851 8852 8850 8847 8843 8839 8836 8835 8836 8837
1807.4557 8837 8837 8835 8833 8830 8826 8824 8824 8827 8832 8838 8843 8847
1813.7231 8849 8849 8847 8845 8844 8843 8843 8844 8845 8847 8847 8847 8845
1819.9907 8842 8840 8838 8836 8834 8833 8833 8834 8836 8841 8846 8852 8855
1826.2582 8856 8854 8852 8849 8848 8851 8857 8866 8872 8874 8872 8868 8863
1832.5258 8859 8856 8852 8849 8845 8842 8840 8841 8845 8851 8857 8861 8863
1838.7932 8861 8856 8850 8842 8833 8825 8817 8813 8813 8819 8830 8842 8848
1845.0608 8847 8841 8836 8835 8838 8843 8846 8845 8840 8833 8827 8824 8824
1851.3282 8828 8831 8832 8828 8821 8811 8803 8798 8799 8805 8813 8818 8819
1857.5958 8815 8806 8795 8785 8777 8772 8771 8772 8775 8777 8777 8774 8770
1863.8633 8766 8763 8762 8760 8759 8757 8755 8753 8751 8748 8745 8741 8739
1870.1309 8738 8739 8741 8743 8744 8747 8751 8758 8766 8773 8776 8776 8773
1876.3983 8769 8769 8771 8777 8782 8786 8785 8779 8771 8762 8755 8752 8754
1882.6659 8757 8761 8763 8763 8762 8761 8764 8769 8774 8777 8778 8778 8776
1888.9333 8776 8777 8778 8777 8773 8767 8759 8752 8749 8751 8758 8767 8774
1895.2009 8773 8764 8751 8741 8737 8742 8752 8760 8763 8759 8751 8743 8737
1901.4684 8735 8736 8737 8739 8741 8744 8749 8755 8761 8766 8768 8768 8766
1907.7360 8764 8762 8760 8759 8757 8754 8750 8746 8742 8739 8736 8735 8737
1914.0034 8741 8747 8753 8756 8758 8758 8758 8759 8763 8770 8779 8788 8796
1920.2710 8801 8802 8798 8790 8780 8771 8768 8770 8777 8789 8805 8820 8833
1926.5385 8838 8834 8823 8810 8796 8783 8771 8759 8749 8742 8743 8751 8765
1932.8060 8779 8788 8790 8784 8774 8763 8757 8757 8761 8764 8763 8754 8737
1939.0735 8716 8696 8678 8665 8656 8652 8654 8665 8681 8701 8721 8739 8755
1945.3411 8767 8774 8776 8771 8762 8751 8739 8728 8720 8717 8721 8732 8747
1951.6085 8760 8765 8759 8743 8726 8718 8724 8743 8766 8785 8792 8789 8779
1957.8761 8770 8764 8761 8759 8751 8734 8705 8667 8627 8598 8589 8608 8651
1964.1436 8706 8759 8795 8808 8800 8778 8754 8736 8727 8724 8720 8712 8698
1970.4111 8683 8670 8663 8660 8657 8648 8634 8621 8617 8628 8651 8682 8712
1976.6786 8737 8754 8761 8758 8743 8722 8702 8690 8692 8705 8723 8737 8738
1982.9462 8726 8705 8683 8669 8666 8676 8697 8723 8751 8773 8784 8777 8753
1989.2136 8719 8685 8664 8664 8689 8731 8777 8811 8825 8820 8803 8779 8755
1995.4812 8735 8724 8719 8720 8720 8717 8712 8708 8712 8730 8761 8798 8827
2001.7487 8840 8829 8798 8756 8713 8676 8648 8627 8613 8606 8607 8616 8633
2008.0162 8654 8677 8698 8710 8707 8682 8636 8579 8527 8496 8497 8528 8582
2014.2837 8646 8711 8769 8817 8847 8850 8823 8776 8729 8702 8705 8734 8769
2020.5513 8791 8787 8760 8722 8686 8656 8632 8608 8585 8570 8569 8582 8604
2026.8187 8626 8640 8644 8642 8640 8639 8641 8644 8646 8649 8654 8662 8675
2033.0863 8691 8708 8724 8739 8756 8779 8804 8825 8831 8814 8774 8723 8673
2039.3538 8635 8614 8607 8610 8620 8639 8667 8696 8718 8721 8702 8665 8625
2045.6213 8597 8591 8608 8637 8664 8672 8656 8620 8577 8543 8531 8542 8570
2051.8889 8607 8643 8670 8682 8680 8665 8646 8629 8619 8617 8622 8627 8628
2058.1563 8625 8617 8607 8596 8586 8579 8577 8582 8596 8616 8635 8648 8653
2064.4238 8651 8646 8639 8631 8618 8600 8580 8565 8559 8566 8582 8598 8609
2070.6914 8610 8605 8599 8598 8602 8609 8616 8616 8608 8591 8570 8549 8533
2076.9590 8527 8530 8540 8554 8568 8579 8588 8598 8609 8622 8635 8646 8651
2083.2263 8649 8641 8629 8619 8614 8616 8622 8629 8634 8634 8634 8635 8643
2089.4939 8656 8671 8681 8681 8671 8654 8637 8628 8630 8639 8650 8658 8658
2095.7615 8654 8648 8645 8647 8653 8660 8665 8669 8672 8674 8675 8676 8676
2102.0291 8672 8664 8650 8631 8612 8599 8596 8603 8617 8632 8642 8646 8646
2108.2964 8643 8640 8636 8636 8640 8650 8664 8676 8681 8674 8660 8646 8641
2114.5640 8648 8661 8675 8680 8675 8662 8647 8636 8629 8628 8630 8633 8635
2120.8315 8634 8631 8627 8626 8629 8638 8649 8659 8666 8669 8667 8664 8660
2127.0991 8658 8657 8662 8670 8681 8689 8691 8687 8682 8682 8689 8696 8697
2133.3665 8686 8664 8643 8631 8631 8637 8641 8636 8627 8621 8627 8644 8666
2139.6340 8687 8702 8714 8727 8738 8744 8739 8720 8690 8657 8632 8619 8619
2145.9016 8630 8646 8660 8666 8663 8652 8638 8627 8621 8622 8629 8645 8669
2152.1692 8702 8737 8766 8776 8758 8714 8655 8598 8564 8564 8598 8653 8708
2158.4365 8734 8717 8665 8606 8570 8577 8622 8688 8746 8776 8776 8754 8724
2164.7041 8697 8671 8645 8620 8604 8610 8644 8701 8760 8800 8806 8781 8737
2170.9717 8691 8653 8628 8615 8611 8617 8631 8650 8671 8691 8710 8728 8740
2177.2393 8739 8720 8683 8637 8599 8580 8581 8592 8598 8588 8564 8536 8518
2183.5066 8517 8532 8555 8577 8591 8601 8613 8637 8674 8717 8748 8744 8695
2189.7742 8607 8507 8429 8399 8424 8492 8575 8649 8697 8718 8717 8704 8686
2196.0417 8665 8640 8610 8577 8547 8529 8529 8546 8570 8587 8589 8572 8545
2202.3093 8517 8498 8489 8489 8495 8507 8526 8551 8575 8589 8588 8573 8552
2208.5767 8535 8530 8538 8552 8565 8569 8564 8552 8539 8531 8533 8545 8563
2214.8442 8583 8598 8603 8597 8581 8562 8542 8525 8509 8494 8477 8460 8446
2221.1118 8439 8444 8461 8487 8515 8538 8549 8546 8533 8515 8498 8485 8476
2227.3794 8470 8466 8466 8470 8478 8485 8488 8483 8473 8464 8460 8465 8477
2233.6467 8492 8506 8514 8516 8515 8514 8514 8517 8523 8530 8536 8540 8542
2239.9143 8543 8545 8549 8555 8564 8571 8576 8576 8569 8556 8541 8528 8523
2246.1819 8527 8538 8550 8554 8547 8530 8512 8499 8500 8512 8533 8554 8571
2252.4495 8580 8583 8581 8576 8569 8558 8544 8527 8512 8500 8495 8496 8501
2258.7168 8508 8515 8519 8521 8519 8517 8516 8518 8524 8532 8539 8538 8527
2264.9844 8508 8486 8471 8467 8476 8493 8510 8522 8526 8523 8515 8507 8499
2271.2520 8493 8489 8487 8486 8487 8488 8490 8492 8494 8493 8491 8486 8482
2277.5195 8480 8482 8488 8493 8495 8492 8484 8475 8466 8460 8456 8454 8453
2283.7869 8451 8449 8447 8442 8435 8426 8415 8407 8404 8406 8416 8429 8443
2290.0544 8455 8460 8458 8450 8440 8433 8431 8435 8441 8449 8454 8458 8460
2296.3220 8460 8458 8453 8444 8434 8422 8413 8407 8405 8405 8406 8408 8411
2302.5896 8413 8414 8413 8410 8403 8396 8391 8389 8390 8392 8392 8390 8385
2308.8569 8379 8376 8376 8379 8383 8387 8390 8391 8390 8387 8382 8375 8367
2315.1245 8359 8354 8353 8356 8361 8366 8369 8371 8372 8375 8380 8389 8399
2321.3921 8410 8418 8424 8425 8421 8412 8399 8387 8379 8378 8384 8393 8402
2327.6597 8407 8407 8404 8398 8390 8378 8363 8344 8329 8323 8330 8348 8373
2333.9270 8398 8418 8432 8439 8437 8427 8409 8386 8364 8347 8336 8332 8333
2340.1946 8337 8345 8355 8367 8377 8379 8375 8365 8356 8353 8356 8364 8370
2346.4622 8374 8374 8372 8371 8370 8370 8371 8371 8371 8369 8365 8357 8343
2352.7297 8323 8300 8278 8263 8259 8266 8277 8285 8286 8279 8271 8269 8276
2358.9971 8290 8300 8302 8293 8279 8269 8269 8281 8305 8334 8363 8384 8391
2365.2646 8380 8351 8312 8272 8241 8223 8219 8225 8238 8252 8267 8278 8286
2371.5322 8291 8295 8300 8306 8313 8318 8318 8314 8308 8303 8299 8296 8293
2377.7998 8289 8286 8286 8291 8300 8309 8316 8317 8313 8306 8300 8295 8293
2384.0671 8294 8297 8299 8301 8302 8302 8301 8300 8300 8298 8297 8294 8290
2390.3347 8285 8281 8279 8278 8279 8280 8280 8279 8278 8277 8275 8274 8273
2396.6023 8271 8269 8266 8263 8262 8263 8266 8270 8272 8271 8268 8263 8260
2402.8699 8260 8263 8268 8273 8275 8276 8274 8271 8268 8265 8262 8259 8258
2409.1372 8258 8261 8265 8271 8275 8277 8277 8274 8270 8267 8265 8264 8264
2415.4048 8264 8264 8266 8270 8274 8278 8280 8279 8276 8271 8266 8264 8264
2421.6724 8267 8270 8273 8273 8271 8268 8265 8263 8263 8264 8265 8265 8264
2427.9399 8263 8262 8263 8265 8267 8268 8266 8263 8260 8257 8256 8257 8259
2434.2073 8262 8265 8267 8269 8269 8268 8266 8264 8263 8263 8267 8272 8276
2440.4749 8277 8275 8270 8264 8260 8259 8260 8261 8260 8257 8251 8244 8239
2446.7424 8237 8239 8243 8247 8249 8249 8248 8247 8248 8250 8253 8254 8251
2453.0100 8247 8243 8241 8241 8242 8243 8240 8235 8226 8218 8212 8209 8210
2459.2773 8213 8216 8218 8220 8220 8220 8220 8220 8218 8214 8208 8202 8198
2465.5449 8195 8196 8199 8202 8205 8206 8204 8202 8202 8203 8207 8212 8216
2471.8125 8216 8212 8205 8197 8189 8182 8177 8175 8173 8172 8171 8169 8169
2478.0801 8170 8173 8177 8182 8184 8184 8180 8175 8169 8164 8159 8156 8156
2484.3474 8158 8161 8163 8163 8159 8152 8144 8136 8129 8124 8119 8116 8113
2490.6150 8110 8108 8108 8109 8113 8120 8128 8137 8143 8148 8149 8148 8146
2496.8826 8141 8136 8130 8126 8125 8127 8132 8136 8139 8139 8137 8134 8130
2503.1501 8126 8121 8115 8109 8105 8102 8103 8106 8111 8116 8121 8125 8129
2509.4175 8133 8135 8137 8137 8137 8136 8136 8135 8133 8130 8125 8119 8115
2515.6851 8113 8114 8115 8116 8115 8113 8111 8110 8110 8111 8110 8107 8103
2521.9526 8099 8096 8094 8091 8086 8080 8074 8070 8069 8072 8076 8081 8085
2528.2202 8088 8090 8091 8090 8087 8083 8078 8074 8071 8069 8066 8063 8058
2534.4875 8055 8054 8057 8061 8066 8070 8073 8074 8075 8074 8071 8066 8059
2540.7551 8053 8049 8046 8043 8040 8034 8027 8020 8015 8013 8013 8014 8014
2547.0227 8012 8008 8005 8005 8009 8017 8026 8033 8035 8033 8028 8024 8023
2553.2903 8026 8031 8038 8045 8050 8056 8062 8067 8072 8077 8079 8080 8079
2559.5576 8076 8073 8071 8073 8079 8089 8101 8112 8120 8125 8127 8127 8126
2565.8252 8123 8121 8117 8113 8108 8105 8104 8107 8113 8122 8131 8137 8139
2572.0928 8138 8136 8134 8132 8132 8132 8130 8126 8121 8116 8111 8107 8107
2578.3604 8108 8110 8112 8112 8110 8106 8102 8097 8092 8087 8081 8075 8070
2584.6279 8066 8064 8063 8063 8064 8064 8063 8059 8055 8048 8043 8038 8037
2590.8953 8037 8038 8040 8040 8040 8040 8040 8039 8037 8033 8029 8025 8022
2597.1628 8023 8027 8033 8037 8040 8040 8037 8033 8028 8024 8022 8021 8022
2603.4304 8024 8025 8026 8025 8024 8022 8020 8018 8017 8016 8016 8016 8017
2609.6980 8018 8018 8018 8017 8014 8011 8007 8004 8001 7999 7996 7992 7986
2615.9653 7979 7975 7974 7977 7982 7986 7986 7982 7975 7967 7960 7956 7955
2622.2329 7955 7955 7956 7956 7957 7957 7957 7955 7952 7947 7943 7940 7939
2628.5005 7940 7941 7942 7941 7938 7935 7931 7930 7930 7932 7935 7937 7937
2634.7681 7936 7933 7931 7931 7931 7931 7930 7928 7926 7925 7925 7926 7928
2641.0354 7931 7933 7934 7936 7937 7938 7939 7939 7939 7939 7940 7941 7942
2647.3030 7941 7940 7939 7938 7938 7938 7938 7938 7937 7936 7935 7935 7935
2653.5706 7936 7938 7940 7943 7947 7951 7953 7954 7954 7954 7955 7958 7962
2659.8381 7965 7968 7970 7971 7972 7973 7974 7975 7977 7978 7980 7981 7982
2666.1055 7982 7982 7980 7979 7978 7977 7977 7976 7976 7975 7975 7975 7975
2672.3730 7976 7978 7980 7982 7984 7986 7988 7988 7987 7984 7981 7978 7978
2678.6406 7979 7982 7985 7989 7992 7995 7997 7998 8000 8001 8002 8003 8004
2684.9082 8006 8008 8009 8010 8009 8008 8006 8005 8004 8005 8007 8010 8013
2691.1755 8015 8016 8017 8017 8017 8019 8021 8024 8027 8029 8030 8031 8033
2697.4431 8035 8039 8044 8050 8055 8059 8061 8063 8063 8062 8060 8058 8057
2703.7107 8057 8058 8060 8062 8064 8064 8064 8062 8059 8055 8051 8047 8044
2709.9783 8041 8038 8034 8031 8029 8027 8026 8026 8024 8021 8016 8012 8009
2716.2456 8007 8006 8006 8006 8004 8002 7998 7995 7991 7987 7983 7981 7979
2722.5132 7978 7978 7979 7979 7980 7979 7977 7975 7973 7972 7973 7974 7977
2728.7808 7978 7978 7975 7970 7965 7961 7958 7957 7956 7956 7956 7957 7959
2735.0483 7963 7968 7971 7971 7966 7958 7948 7941 7939 7943 7950 7957 7962
2741.3157 7965 7965 7964 7964 7963 7962 7960 7958 7955 7953 7952 7953 7955
2747.5833 7959 7963 7965 7967 7967 7965 7963 7961 7958 7954 7950 7945 7940
2753.8508 7935 7931 7930 7931 7932 7934 7935 7934 7933 7932 7931 7931 7931
2760.1184 7930 7928 7926 7925 7924 7924 7923 7921 7920 7918 7918 7918 7919
2766.3857 7918 7917 7914 7911 7908 7907 7907 7907 7909 7910 7911 7912 7913
2772.6533 7913 7915 7917 7918 7919 7919 7918 7917 7916 7916 7918 7922 7926
2778.9209 7930 7933 7935 7937 7939 7941 7942 7944 7947 7950 7955 7960 7965
2785.1885 7969 7973 7977 7981 7984 7986 7987 7987 7987 7988 7989 7992 7994
2791.4558 7995 7996 7996 7997 7999 8001 8004 8006 8007 8009 8012 8017 8021
2797.7234 8026 8030 8033 8034 8035 8036 8037 8040 8043 8047 8051 8055 8058
2803.9910 8060 8062 8064 8067 8070 8075 8081 8087 8091 8095 8096 8098 8099
2810.2585 8103 8110 8119 8129 8139 8147 8155 8162 8168 8175 8182 8189 8195
2816.5259 8202 8208 8214 8219 8224 8228 8233 8238 8243 8248 8252 8255 8258
2822.7935 8261 8264 8268 8273 8278 8284 8289 8294 8298 8302 8306 8311 8317
2829.0610 8322 8327 8329 8330 8329 8328 8328 8331 8336 8342 8348 8351 8353
2835.3286 8353 8353 8354 8356 8359 8362 8366 8372 8380 8388 8396 8402 8406
2841.5959 8407 8407 8408 8411 8416 8423 8430 8436 8441 8442 8441 8437 8433
2847.8635 8429 8427 8428 8430 8433 8437 8440 8443 8445 8446 8448 8450 8453
2854.1311 8456 8457 8457 8455 8451 8447 8443 8440 8436 8431 8426 8421 8417
2860.3987 8415 8413 8412 8409 8405 8400 8395 8391 8387 8383 8379 8375 8369
2866.6660 8364 8358 8353 8348 8346 8345 8347 8349 8351 8352 8353 8352 8350
2872.9336 8348 8346 8344 8342 8339 8336 8332 8327 8323 8320 8318 8316 8315
2879.2012 8313 8310 8308 8307 8306 8306 8306 8306 8305 8302 8299 8294 8290
2885.4688 8287 8286 8288 8292 8297 8304 8309 8313 8315 8317 8319 8323 8326
2891.7361 8330 8334 8337 8340 8342 8346 8349 8354 8358 8361 8364 8366 8368
2898.0037 8370 8373 8376 8379 8382 8383 8384 8384 8385 8386 8390 8395 8403
2904.2712 8411 8418 8424 8429 8432 8434 8437 8440 8444 8450 8458 8466 8475
2910.5388 8483 8488 8492 8495 8498 8502 8508 8515 8523 8531 8539 8546 8553
2916.8062 8560 8567 8575 8584 8593 8602 8610 8617 8623 8630 8637 8645 8652
2923.0737 8660 8667 8674 8683 8694 8705 8716 8727 8737 8745 8753 8759 8764
2929.3413 8769 8775 8781 8789 8798 8808 8817 8827 8836 8844 8852 8859 8864
2935.6089 8865 8863 8857 8851 8846 8844 8845 8847 8848 8847 8843 8837 8831
2941.8762 8825 8821 8819 8818 8818 8816 8812 8807 8802 8797 8793 8791 8789
2948.1438 8787 8784 8781 8777 8773 8769 8765 8761 8759 8758 8758 8759 8758
2954.4114 8756 8753 8749 8745 8742 8740 8740 8740 8741 8742 8741 8738 8734
2960.6790 8729 8724 8720 8717 8714 8711 8709 8706 8705 8705 8707 8709 8711
2966.9463 8712 8713 8715 8716 8716 8717 8716 8716 8716 8716 8716 8716 8715
2973.2139 8716 8719 8724 8731 8738 8745 8750 8752 8753 8753 8754 8758 8763
2979.4814 8769 8773 8775 8774 8772 8772 8774 8778 8785 8791 8795 8796 8795
2985.7490 8793 8790 8789 8789 8789 8787 8784 8779 8773 8768 8763 8759 8753
2992.0164 8746 8737 8729 8723 8718 8715 8711 8706 8700 8693 8685 8677 8670
2998.2839 8663 8656 8650 8644 8639 8634 8628 8621 8612 8602 8593 8584 8578
3004.5515 8575 8574 8574 8573 8569 8562 8553 8545 8538 8534 8530 8525 8519
3010.8191 8511 8503 8497 8493 8492 8490 8488 8486 8484 8483 8484 8486 8488
3017.0864 8490 8492 8493 8494 8494 8492 8489 8486 8484 8485 8487 8491 8494
3023.3540 8495 8495 8495 8495 8497 8501 8506 8512 8517 8520 8522 8524 8525
3029.6216 8528 8531 8536 8541 8546 8549 8550 8548 8544 8540 8536 8534 8533
3035.8892 8535 8540 8549 8559 8571 8581 8587 8591 8593 8595 8598 8602 8606
3042.1565 8608 8609 8609 8609 8610 8612 8614 8617 8621 8626 8633 8640 8645
3048.4241 8647 8645 8641 8636 8633 8632 8631 8631 8629 8627 8623 8619 8614
3054.6917 8608 8602 8596 8590 8587 8585 8585 8587 8589 8592 8596 8601 8606
3060.9592 8612 8618 8622 8625 8627 8629 8632 8634 8636 8635 8631 8625 8619
3067.2266 8615 8612 8610 8604 8595 8582 8567 8552 8541 8532 8525 8520 8515
3073.4941 8511 8510 8512 8517 8524 8531 8536 8537 8536 8534 8532 8531 8531
3079.7617 8529 8525 8519 8511 8500 8489 8477 8465 8455 8446 8440 8437 8435
3086.0293 8434 8430 8425 8420 8416 8414 8415 8418 8421 8423 8425 8426 8428
3092.2966 8432 8436 8439 8442 8443 8443 8446 8451 8459 8470 8482 8493 8502
3098.5642 8510 8518 8527 8536 8547 8557 8568 8579 8592 8605 8620 8635 8649
3104.8318 8663 8677 8691 8705 8720 8733 8744 8754 8762 8769 8775 8778 8776
3111.0994 8770 8760 8749 8741 8736 8736 8738 8740 8742 8742 8742 8743 8743
3117.3667 8743 8742 8739 8735 8730 8725 8721 8718 8716 8713 8710 8705 8698
3123.6343 8689 8678 8668 8658 8652 8649 8649 8650 8649 8645 8637 8626 8616
3129.9019 8610 8607 8607 8609 8611 8613 8615 8619 8625 8631 8637 8642 8647
3136.1694 8651 8654 8655 8653 8650 8647 8648 8653 8660 8669 8676 8681 8685
3142.4368 8690 8696 8704 8713 8720 8723 8721 8716 8709 8704 8702 8703 8707
3148.7043 8712 8717 8719 8719 8716 8711 8705 8698 8692 8686 8680 8675 8672
3154.9719 8671 8672 8675 8679 8683 8686 8687 8686 8684 8682 8681 8680 8680
3161.2395 8680 8682 8685 8688 8692 8696 8699 8700 8699 8695 8689 8681 8674
3167.5068 8669 8665 8664 8662 8659 8655 8650 8645 8641 8640 8640 8640 8639
3173.7744 8636 8632 8627 8623 8620 8618 8616 8613 8611 8608 8604 8601 8598
3180.0420 8594 8591 8587 8582 8578 8574 8571 8569 8567 8565 8562 8558 8555
3186.3096 8554 8554 8555 8556 8559 8562 8566 8572 8576 8580 8582 8583 8585
3192.5769 8588 8593 8597 8603 8608 8616 8624 8634 8643 8651 8657 8661 8665
3198.8445 8668 8674 8681 8691 8701 8712 8721 8727 8730 8731 8731 8733 8736
3205.1121 8742 8748 8756 8763 8769 8774 8776 8776 8772 8767 8762 8759 8761
3211.3796 8768 8779 8794 8808 8819 8824 8824 8819 8811 8802 8795 8792 8794
3217.6470 8799 8808 8819 8830 8840 8847 8853 8856 8857 8857 8858 8859 8861
3223.9146 8863 8865 8866 8867 8869 8871 8873 8876 8879 8882 8885 8888 8891
3230.1821 8893 8893 8893 8893 8893 8894 8894 8895 8895 8896 8899 8901 8902
3236.4497 8902 8901 8900 8901 8903 8907 8909 8909 8907 8903 8899 8897 8897
3242.7170 8897 8897 8894 8889 8884 8879 8876 8875 8875 8874 8872 8869 8863
3248.9846 8857 8851 8845 8839 8835 8831 8829 8826 8822 8817 8810 8802 8795
3255.2522 8790 8787 8784 8781 8775 8766 8755 8743 8731 8721 8714 8708 8702
3261.5198 8697 8690 8682 8674 8666 8658 8648 8635 8619 8600 8581 8565 8553
3267.7871 8546 8542 8540 8536 8528 8516 8502 8487 8472 8458 8445 8432 8420
3274.0547 8409 8403 8400 8403 8407 8412 8413 8412 8409 8407 8409 8416 8428
3280.3223 8440 8451 8459 8464 8468 8474 8484 8499 8517 8535 8551 8562 8568
3286.5898 8572 8577 8586 8601 8621 8642 8662 8681 8698 8715 8734 8756 8778
3292.8572 8798 8815 8827 8837 8845 8854 8865 8876 8887 8895 8901 8905 8907
3299.1248 8908 8909 8908 8907 8904 8900 8893 8883 8870 8855 8839 8824 8809
3305.3923 8792 8774 8755 8736 8719 8702 8683 8660 8632 8598 8563 8528 8496
3311.6599 8469 8445 8418 8388 8351 8311 8269 8231 8199 8174 8155 8142 8134
3317.9272 8130 8131 8137 8149 8166 8187 8211 8237 8266 8299 8337 8380 8430
3324.1948 8484 8539 8593 8644 8691 8736 8778 8820 8860 8897 8930 8956 8977
3330.4624 8992 9002 9009 9014 9016 9014 9008 8998 8985 8968 8948 8926 8901
3336.7300 8874 8846 8816 8786 8754 8722 8687 8649 8611 8572 8538 8510 8489
3342.9973 8476 8468 8464 8459 8453 8445 8435 8426 8416 8409 8403 8400 8400
3349.2649 8403 8409 8419 8433 8452 8477 8508 8545 8587 8632 8679 8730 8783
3355.5325 8842 8904 8969 9035 9099 9161 9218 9269 9314 9355 9391 9426 9462
3361.8000 9498 9535 9569 9598 9620 9635 9645 9653 9660 9670 9683 9696 9708
3368.0674 9717 9722 9724 9723 9722 9721 9722 9724 9726 9728 9729 9731 9732
3374.3350 9733 9733 9734 9735 9735 9736 9737 9738 9738 9738 9736 9734 9732
3380.6025 9730 9729 9730 9732 9733 9732 9728 9721 9713 9705 9699 9696 9694
3386.8701 9695 9696 9696 9695 9692 9689 9685 9681 9677 9673 9669 9666 9663
3393.1375 9661 9658 9654 9648 9642 9637 9634 9633 9634 9634 9633 9631 9628
3399.4050 9625 9624 9623 9622 9620 9618 9616 9615 9614 9612 9610 9608 9606
3405.6726 9604 9604 9602 9600 9597 9592 9585 9579 9572 9567 9561 9557 9552
3411.9402 9549 9548 9547 9548 9549 9549 9548 9544 9541 9537 9534 9532 9530
3418.2075 9527 9524 9520 9515 9509 9503 9498 9494 9492 9491 9491 9491 9490
3424.4751 9488 9485 9481 9478 9475 9472 9469 9465 9460 9454 9447 9439 9432
3430.7427 9425 9419 9415 9413 9411 9409 9408 9407 9407 9408 9408 9405 9400
3437.0103 9392 9383 9373 9364 9356 9350 9346 9345 9345 9347 9349 9349 9347
3443.2776 9343 9338 9335 9332 9329 9326 9322 9317 9312 9308 9304 9300 9297
3449.5452 9293 9291 9291 9293 9295 9298 9299 9298 9294 9288 9283 9277 9271
3455.8127 9265 9258 9250 9243 9241 9243 9249 9257 9263 9264 9258 9250 9241
3462.0803 9234 9230 9227 9224 9219 9214 9208 9204 9204 9206 9210 9214 9215
3468.3477 9214 9210 9205 9201 9198 9196 9196 9195 9194 9191 9187 9182 9176
3474.6152 9170 9165 9163 9164 9166 9169 9169 9166 9161 9155 9149 9143 9138
3480.8828 9134 9130 9127 9123 9121 9119 9119 9122 9125 9129 9131 9130 9126
3487.1504 9119 9110 9102 9094 9087 9082 9078 9077 9079 9083 9088 9091 9090
3493.4177 9086 9079 9071 9064 9059 9056 9057 9059 9062 9064 9064 9061 9057
3499.6853 9051 9046 9042 9039 9037 9035 9034 9031 9027 9022 9017 9014 9014
3505.9529 9018 9024 9029 9031 9028 9021 9011 9002 8996 8992 8990 8989 8989
3512.2205 8990 8991 8991 8991 8989 8987 8986 8987 8989 8989 8988 8985 8980
3518.4878 8975 8972 8969 8966 8962 8957 8953 8949 8947 8948 8951 8955 8959
3524.7554 8961 8962 8961 8960 8958 8955 8951 8945 8937 8929 8924 8922 8922
3531.0229 8922 8920 8915 8909 8903 8900 8900 8901 8904 8905 8905 8903 8900
3537.2905 8895 8890 8883 8877 8872 8870 8870 8872 8875 8876 8876 8873 8869
3543.5579 8866 8866 8867 8870 8872 8872 8870 8868 8868 8869 8871 8871 8867
3549.8254 8860 8852 8845 8842 8842 8845 8850 8855 8860 8862 8862 8858 8852
3556.0930 8843 8835 8830 8829 8830 8834 8838 8841 8842 8840 8838 8835 8833
3562.3606 8831 8827 8821 8812 8801 8790 8782 8780 8783 8792 8801 8808 8811
3568.6282 8812 8812 8811 8811 8811 8809 8807 8804 8802 8801 8802 8805 8806
3574.8955 8806 8803 8799 8795 8792 8789 8787 8785 8782 8780 8779 8778 8777
3581.1631 8775 8771 8766 8761 8757 8753 8750 8746 8743 8741 8744 8752 8765
3587.4307 8777 8784 8785 8782 8776 8768 8757 8746 8735 8726 8723 8727 8736
3593.6982 8748 8760 8768 8770 8766 8757 8745 8733 8725 8721 8722 8725 8729
3599.9656 8731 8731 8730 8728 8727 8726 8725 8722 8718 8714 8710 8708 8708
3606.2332 8710 8713 8717 8721 8726 8730 8732 8727 8717 8702 8685 8669 8658
3612.5007 8653 8654 8660 8668 8675 8681 8685 8686 8683 8677 8668 8661 8657
3618.7683 8661 8671 8684 8694 8698 8696 8690 8681 8671 8663 8656 8653 8653
3625.0356 8655 8655 8652 8645 8633 8621 8617 8629 8658 8684 8695 8695 8688
3631.3032 8680 8672 8666 8661 8657 8653 8650 8647 8644 8643 8643 8643 8642
3637.5708 8638 8631 8622 8613 8606 8601 8598 8597 8598 8600 8605 8609 8612
3643.8384 8612 8608 8600 8591 8583 8582 8591 8607 8624 8634 8635 8629 8620
3650.1057 8613 8610 8610 8612 8613 8613 8609 8602 8591 8579 8569 8568 8578
3656.3733 8594 8605 8605 8598 8587 8578 8573 8573 8577 8582 8587 8590 8593
3662.6409 8594 8593 8590 8584 8577 8570 8565 8561 8558 8555 8550 8543 8536
3668.9084 8530 8529 8536 8548 8559 8565 8563 8557 8546 8533 8519 8511 8522
3675.1758 8558 8595 8610 8606 8592 8575 8558 8546 8540 8541 8546 8552 8557
3681.4434 8560 8563 8564 8566 8567 8566 8563 8557 8547 8534 8520 8507 8501
3687.7109 8503 8514 8525 8531 8534 8538 8546 8557 8567 8573 8574 8571 8567
3693.9785 8563 8559 8555 8550 8544 8539 8536 8535 8537 8539 8539 8536 8531
3700.2458 8524 8520 8521 8528 8540 8550 8558 8563 8568 8571 8573 8573 8571
3706.5134 8567 8562 8560 8559 8559 8559 8555 8546 8536 8529 8533 8547 8563
3712.7810 8573 8574 8569 8562 8557 8553 8551 8547 8541 8534 8528 8526 8528
3719.0486 8532 8537 8540 8544 8548 8554 8560 8561 8557 8548 8539 8532 8528
3725.3159 8528 8532 8539 8547 8554 8559 8561 8558 8553 8545 8538 8534 8534
3731.5835 8536 8537 8532 8523 8516 8517 8530 8550 8564 8562 8548 8534 8526
3737.8511 8527 8535 8542 8547 8547 8544 8539 8533 8528 8521 8514 8508 8512
3744.1187 8532 8561 8576 8575 8566 8554 8542 8531 8525 8525 8533 8543 8552
3750.3860 8558 8565 8573 8583 8587 8584 8574 8563 8552 8547 8549 8558 8570
3756.6536 8578 8577 8568 8556 8546 8544 8550 8558 8562 8560 8556 8550 8544
3762.9211 8539 8535 8530 8529 8533 8544 8557 8566 8568 8563 8555 8546 8541
3769.1887 8541 8545 8548 8546 8542 8539 8538 8541 8547 8553 8558 8558 8556
3775.4561 8550 8543 8535 8526 8515 8507 8502 8505 8516 8531 8544 8554 8559
3781.7236 8560 8557 8553 8549 8546 8546 8549 8553 8554 8552 8548 8544 8542
3787.9912 8542 8544 8546 8547 8545 8542 8539 8537 8535 8533 8531 8528 8525
3794.2588 8523 8524 8528 8537 8549 8559 8564 8563 8556 8545 8531 8517 8505
3800.5261 8504 8518 8544 8565 8576 8576 8570 8559 8546 8532 8521 8516 8524
3806.7937 8540 8555 8560 8556 8547 8538 8532 8528 8528 8531 8536 8540 8542
3813.0613 8539 8533 8523 8513 8510 8519 8538 8555 8561 8557 8547 8534 8519
3819.3289 8504 8494 8496 8513 8533 8543 8543 8536 8528 8522 8518 8516 8517
3825.5962 8520 8525 8531 8538 8541 8541 8537 8530 8524 8520 8523 8533 8546
3831.8638 8555 8558 8555 8551 8548 8548 8549 8548 8544 8538 8532 8531 8534
3838.1313 8537 8535 8531 8527 8528 8534 8541 8546 8546 8544 8543 8546 8553
3844.3989 8558 8561 8559 8554 8548 8543 8538 8534 8530 8523 8514 8503 8493
3850.6663 8483 8477 8477 8488 8513 8547 8573 8580 8575 8569 8564 8563 8564
3856.9338 8566 8565 8562 8555 8546 8539 8535 8537 8542 8550 8553 8550 8543
3863.2014 8534 8530 8535 8548 8561 8567 8564 8556 8545 8534 8525 8521 8527
3869.4690 8543 8560 8567 8564 8555 8543 8534 8529 8532 8542 8553 8559 8560
3875.7363 8558 8557 8555 8552 8547 8540 8533 8529 8533 8545 8559 8568 8569
3882.0039 8565 8558 8549 8540 8528 8519 8515 8523 8540 8559 8571 8575 8572
3888.2715 8565 8556 8547 8541 8541 8547 8556 8563 8564 8561 8557 8553 8551
3894.5391 8551 8550 8548 8544 8538 8533 8531 8534 8543 8552 8559 8560 8558
3900.8064 8555 8553 8554 8557 8561 8566 8571 8576 8580 8579 8573 8564 8554
3907.0740 8547 8543 8543 8548 8554 8560 8563 8563 8560 8555 8551 8549 8547
3913.3416 8546 8544 8541 8538 8535 8535 8537 8541 8544 8544 8543 8541 8539
3919.6091 8538 8540 8543 8546 8548 8550 8551 8550 8550 8550 8551 8552 8554
3925.8765 8554 8552 8550 8549 8549 8549 8550 8550 8548 8545 8545 8548 8555
3932.1440 8561 8565 8564 8560 8556 8553 8552 8552 8552 8552 8551 8550 8549
3938.4116 8548 8546 8542 8538 8534 8531 8532 8537 8543 8549 8553 8554 8553
3944.6792 8552 8551 8550 8550 8549 8547 8543 8539 8534 8532 8532 8533 8534
3950.9465 8533 8532 8530 8531 8534 8539 8544 8546 8544 8537 8530 8523 8519
3957.2141 8519 8521 8525 8529 8533 8536 8538 8541 8542 8542 8541 8538 8535
3963.4817 8532 8531 8532 8535 8540 8544 8547 8547 8544 8540 8536 8535 8537
3969.7493 8541 8546 8550 8550 8549 8549 8550 8552 8554 8555 8554 8553 8552
3976.0166 8555 8559 8563 8565 8563 8558 8551 8546 8544 8544 8546 8547 8548
3982.2842 8548 8548 8549 8550 8551 8551 8550 8547 8544 8541 8539 8538 8538
3988.5518 8540 8542 8546 8550 8553 8555 8556 8555 8555 8556 8559 8563 8568
3994.8193 8572 8573 8571 8566 8560 8554 8551 8549 8550 8553 8556 8558
##END= 
