##TITLE= idroclorotiazide
##JCAMP-DX= 4.24
##DATA TYPE= INFRARED SPECTRUM
##ORIGIN= JASCO
##OWNER= 
##DATE= 22/03/28
##TIME= 15:40:33
##SPECTROMETER/DATA SYSTEM= 
##RESOLUTION= 
##DELTAX=   0.48211674
##XUNITS= 1/CM
##YUNITS= TRANSMITTANCE
##XFACTOR= 1.00000
##YFACTOR= 0.0001
##FIRSTX=   599.7532
##LASTX=  4000.1226
##NPOINTS=     7054
##FIRSTY=      0.82574
##MAXY=      1.01364
##MINY=      0.79417
##XYDATA= (X++(Y..Y))
599.7532 8257 8257 8255 8236 8194 8134 8069 8015 7979 7961 7953 7948 7943 7942
606.5029 7951 7975 8011 8053 8090 8118 8137 8154 8176 8212 8260 8313 8362 8400
613.2525 8429 8457 8493 8542 8599 8655 8702 8736 8760 8782 8808 8838 8867 8890
620.0021 8903 8907 8902 8892 8881 8874 8877 8892 8918 8949 8977 8998 9007 9006
626.7518 8998 8986 8971 8958 8949 8948 8951 8952 8942 8916 8873 8825 8784 8763
633.5014 8767 8794 8834 8872 8897 8905 8902 8895 8894 8901 8912 8921 8919 8903
640.2510 8877 8847 8823 8814 8826 8859 8911 8974 9040 9100 9146 9177 9194 9202
647.0007 9209 9222 9243 9270 9293 9299 9279 9232 9168 9107 9067 9055 9065 9081
653.7503 9085 9069 9044 9026 9027 9046 9073 9093 9100 9102 9107 9124 9149 9171
660.4999 9180 9168 9135 9079 9001 8903 8795 8696 8629 8610 8643 8725 8855 9043
667.2496 9299 9573 9657 9443 9174 8985 8862 8770 8693 8625 8570 8529 8497 8464
673.9992 8426 8388 8364 8367 8402 8461 8524 8579 8621 8663 8721 8802 8900 9001
680.7488 9084 9136 9149 9126 9075 9010 8951 8914 8911 8945 9004 9069 9119 9139
687.4985 9129 9098 9059 9022 8990 8962 8938 8926 8936 8982 9067 9180 9293 9372
694.2481 9388 9332 9220 9082 8954 8862 8816 8810 8826 8849 8871 8892 8917 8948
700.9977 8984 9018 9044 9057 9058 9046 9020 8979 8922 8854 8784 8721 8670 8633
707.7474 8606 8591 8589 8607 8649 8709 8778 8840 8882 8902 8903 8895 8889 8893
714.4970 8908 8931 8957 8981 9000 9013 9022 9027 9025 9013 8985 8940 8886 8835
721.2466 8799 8781 8775 8775 8778 8785 8800 8823 8849 8869 8874 8865 8848 8830
727.9963 8817 8808 8800 8789 8777 8768 8766 8770 8775 8775 8768 8754 8738 8723
734.7459 8712 8705 8700 8694 8684 8669 8649 8624 8597 8568 8542 8521 8507 8499
741.4955 8495 8491 8483 8470 8452 8433 8416 8401 8389 8377 8364 8348 8329 8308
748.2452 8288 8272 8266 8273 8291 8317 8348 8380 8414 8451 8495 8544 8593 8638
754.9948 8674 8698 8712 8717 8715 8708 8698 8685 8672 8656 8636 8612 8585 8557
761.7444 8528 8500 8472 8444 8418 8396 8379 8367 8358 8350 8343 8340 8344 8357
768.4941 8378 8401 8418 8427 8426 8418 8410 8407 8413 8428 8449 8470 8486 8496
775.2437 8501 8505 8513 8526 8544 8565 8588 8609 8630 8650 8669 8691 8716 8744
781.9933 8777 8811 8845 8876 8900 8918 8931 8943 8959 8983 9015 9053 9091 9125
788.7430 9153 9175 9195 9217 9239 9261 9282 9301 9320 9342 9366 9389 9408 9417
795.4926 9417 9410 9401 9394 9392 9395 9404 9418 9436 9455 9473 9485 9490 9487
802.2422 9481 9478 9481 9491 9503 9512 9514 9509 9500 9490 9486 9489 9498 9510
808.9919 9520 9527 9527 9521 9511 9500 9492 9488 9490 9496 9502 9507 9512 9517
815.7415 9523 9529 9533 9532 9527 9519 9509 9500 9492 9484 9477 9471 9467 9463
822.4911 9461 9458 9457 9456 9457 9458 9456 9448 9437 9422 9409 9401 9398 9400
829.2408 9404 9407 9409 9409 9407 9403 9398 9390 9382 9372 9362 9352 9344 9335
835.9904 9327 9317 9309 9302 9296 9292 9289 9285 9281 9277 9271 9264 9254 9243
842.7401 9234 9226 9220 9213 9203 9188 9170 9151 9134 9118 9104 9088 9071 9051
849.4897 9030 9007 8984 8960 8934 8904 8870 8830 8782 8727 8666 8604 8542 8484
856.2393 8434 8396 8375 8374 8392 8429 8480 8541 8612 8689 8773 8862 8951 9038
862.9890 9115 9178 9224 9253 9267 9273 9274 9276 9277 9277 9275 9270 9262 9252
869.7386 9242 9232 9223 9217 9213 9210 9205 9196 9182 9166 9149 9136 9126 9120
876.4882 9114 9105 9092 9076 9061 9049 9043 9039 9037 9032 9024 9015 9005 8994
883.2379 8984 8973 8960 8948 8937 8930 8925 8922 8919 8914 8908 8900 8893 8886
889.9875 8880 8873 8868 8862 8858 8855 8853 8851 8847 8842 8837 8832 8828 8826
896.7371 8823 8819 8813 8804 8793 8781 8771 8764 8761 8761 8764 8768 8771 8772
903.4868 8772 8773 8777 8785 8795 8805 8811 8811 8804 8793 8783 8780 8790 8817
910.2364 8860 8912 8967 9015 9052 9075 9087 9090 9089 9085 9081 9076 9071 9066
916.9860 9064 9065 9068 9072 9075 9075 9070 9063 9055 9048 9042 9039 9037 9035
923.7357 9031 9027 9023 9020 9018 9017 9016 9015 9013 9008 9002 8996 8989 8983
930.4853 8978 8976 8976 8977 8977 8976 8974 8972 8971 8972 8974 8977 8979 8982
937.2349 8983 8985 8986 8986 8986 8985 8984 8984 8985 8989 8996 9008 9022 9039
943.9846 9057 9074 9091 9109 9128 9149 9171 9193 9213 9231 9246 9261 9277 9294
950.7342 9314 9335 9354 9372 9387 9398 9408 9415 9421 9427 9432 9437 9443 9448
957.4838 9453 9458 9463 9467 9469 9471 9471 9470 9468 9465 9462 9458 9454 9450
964.2335 9445 9441 9437 9434 9431 9428 9426 9424 9423 9423 9423 9422 9418 9412
970.9831 9404 9397 9391 9386 9382 9378 9371 9364 9357 9351 9348 9346 9344 9342
977.7327 9339 9335 9331 9327 9323 9317 9311 9304 9296 9288 9280 9274 9271 9270
984.4824 9273 9276 9279 9280 9277 9272 9267 9262 9259 9256 9253 9247 9240 9231
991.2320 9221 9212 9206 9201 9199 9198 9197 9195 9192 9187 9181 9174 9166 9157
997.9816 9148 9139 9132 9126 9123 9122 9120 9117 9112 9104 9093 9081 9070 9059
1004.7313 9049 9039 9029 9019 9009 9000 8990 8981 8972 8963 8955 8947 8939
1010.9988 8933 8927 8920 8914 8907 8897 8886 8871 8854 8837 8822 8809 8799
1017.2663 8791 8784 8777 8770 8763 8758 8753 8750 8747 8744 8743 8744 8749
1023.5338 8760 8778 8801 8829 8859 8888 8916 8941 8964 8987 9009 9031 9053
1029.8014 9071 9087 9098 9105 9109 9110 9109 9108 9108 9106 9104 9099 9092
1036.0688 9083 9073 9063 9053 9043 9031 9017 9003 8988 8974 8962 8951 8940
1042.3364 8930 8918 8905 8891 8874 8857 8839 8821 8804 8787 8768 8748 8727
1048.6039 8705 8684 8664 8645 8624 8603 8580 8556 8534 8515 8498 8482 8466
1054.8715 8449 8432 8417 8406 8402 8405 8416 8432 8453 8479 8507 8540 8576
1061.1389 8615 8657 8701 8746 8791 8836 8881 8924 8963 8997 9027 9053 9073
1067.4065 9089 9098 9101 9096 9084 9068 9050 9032 9017 9006 8998 8994 8991
1073.6740 8990 8988 8986 8986 8990 8998 9011 9030 9053 9079 9106 9132 9157
1079.9415 9179 9198 9214 9228 9240 9250 9259 9266 9272 9278 9284 9290 9296
1086.2090 9301 9304 9306 9306 9305 9302 9297 9290 9283 9276 9269 9262 9255
1092.4766 9246 9235 9223 9211 9201 9195 9191 9188 9187 9185 9184 9185 9186
1098.7440 9187 9186 9181 9174 9165 9156 9148 9141 9134 9125 9115 9102 9087
1105.0116 9070 9053 9036 9019 9005 8992 8979 8965 8950 8931 8911 8890 8870
1111.2791 8851 8833 8816 8800 8782 8763 8741 8716 8690 8665 8641 8618 8597
1117.5466 8576 8556 8535 8517 8503 8494 8490 8493 8503 8521 8547 8581 8622
1123.8141 8668 8715 8759 8798 8829 8853 8870 8881 8886 8885 8879 8868 8852
1130.0817 8833 8814 8795 8775 8756 8735 8713 8688 8661 8632 8601 8570 8539
1136.3491 8509 8481 8453 8427 8401 8375 8349 8323 8296 8269 8243 8218 8194
1142.6167 8173 8154 8135 8118 8101 8087 8077 8071 8069 8069 8070 8072 8075
1148.8842 8080 8087 8099 8117 8139 8167 8199 8237 8279 8326 8378 8434 8490
1155.1517 8543 8590 8629 8657 8675 8680 8675 8661 8639 8613 8587 8563 8545
1161.4192 8533 8528 8529 8538 8554 8576 8604 8635 8669 8703 8735 8764 8788
1167.6868 8808 8825 8840 8855 8869 8883 8894 8902 8905 8905 8901 8893 8883
1173.9542 8872 8860 8848 8836 8823 8809 8794 8782 8774 8773 8781 8795 8816
1180.2218 8841 8869 8899 8932 8967 9003 9042 9084 9127 9170 9213 9253 9292
1186.4893 9330 9370 9411 9451 9490 9523 9551 9575 9595 9613 9631 9647 9661
1192.7568 9673 9681 9687 9692 9696 9699 9701 9702 9700 9697 9694 9692 9692
1199.0243 9693 9694 9695 9694 9692 9691 9689 9688 9687 9685 9682 9678 9673
1205.2919 9668 9665 9663 9662 9662 9661 9660 9657 9654 9649 9645 9641 9638
1211.5593 9635 9632 9630 9629 9628 9627 9625 9621 9616 9611 9606 9602 9599
1217.8269 9598 9598 9599 9599 9599 9597 9594 9589 9582 9576 9569 9563 9559
1224.0944 9556 9554 9552 9550 9547 9544 9539 9535 9529 9522 9514 9505 9495
1230.3619 9484 9475 9467 9459 9453 9447 9440 9432 9422 9411 9400 9388 9376
1236.6294 9365 9354 9343 9331 9319 9307 9295 9283 9272 9262 9253 9247 9245
1242.8970 9250 9262 9281 9307 9339 9373 9408 9441 9470 9495 9515 9529 9539
1249.1644 9546 9549 9549 9547 9544 9540 9535 9530 9522 9512 9500 9487 9474
1255.4320 9461 9448 9435 9422 9409 9397 9385 9372 9359 9344 9330 9317 9305
1261.6995 9297 9290 9284 9279 9274 9269 9263 9255 9246 9235 9224 9215 9211
1267.9670 9211 9214 9217 9215 9205 9187 9162 9134 9105 9079 9056 9039 9028
1274.2345 9023 9026 9037 9056 9082 9113 9146 9179 9210 9236 9257 9274 9285
1280.5021 9293 9296 9297 9296 9292 9286 9280 9272 9262 9250 9236 9220 9203
1286.7695 9186 9170 9155 9140 9126 9110 9093 9074 9054 9034 9014 8994 8974
1293.0371 8956 8938 8922 8906 8892 8879 8866 8855 8845 8837 8832 8829 8830
1299.3046 8834 8841 8851 8861 8869 8875 8877 8874 8866 8855 8839 8820 8798
1305.5721 8773 8746 8718 8690 8663 8636 8609 8583 8557 8532 8508 8483 8459
1311.8396 8435 8414 8394 8379 8366 8356 8349 8342 8337 8334 8334 8339 8350
1318.1072 8367 8393 8427 8468 8513 8561 8610 8659 8708 8755 8800 8843 8880
1324.3746 8912 8937 8953 8960 8959 8948 8930 8905 8875 8841 8807 8774 8746
1330.6422 8725 8714 8713 8723 8742 8768 8798 8830 8864 8900 8937 8978 9021
1336.9097 9064 9106 9144 9180 9216 9255 9298 9342 9384 9423 9457 9487 9514
1343.1772 9538 9560 9577 9591 9602 9610 9616 9622 9627 9631 9634 9636 9637
1349.4447 9636 9636 9635 9633 9632 9631 9629 9628 9627 9626 9625 9623 9621
1355.7123 9618 9615 9611 9606 9602 9598 9595 9590 9584 9576 9565 9553 9539
1361.9797 9525 9513 9505 9502 9502 9502 9499 9494 9486 9475 9462 9449 9435
1368.2473 9422 9411 9400 9392 9383 9376 9368 9360 9353 9348 9348 9356 9374
1374.5148 9404 9441 9480 9519 9556 9590 9622 9652 9680 9707 9731 9752 9770
1380.7823 9785 9797 9806 9813 9819 9824 9827 9829 9830 9828 9824 9817 9808
1387.0498 9800 9796 9797 9802 9807 9811 9814 9814 9814 9814 9813 9812 9809
1393.3174 9803 9794 9782 9772 9765 9764 9765 9766 9766 9764 9761 9758 9756
1399.5848 9756 9756 9755 9754 9753 9752 9750 9747 9740 9732 9723 9717 9715
1405.8524 9718 9721 9724 9725 9723 9718 9713 9707 9701 9697 9694 9691 9687
1412.1199 9683 9677 9672 9665 9659 9651 9642 9631 9618 9605 9593 9581 9568
1418.3875 9552 9536 9522 9515 9513 9512 9510 9504 9495 9482 9467 9453 9443
1424.6549 9439 9436 9434 9430 9426 9420 9416 9413 9413 9415 9422 9432 9445
1430.9225 9460 9475 9489 9504 9517 9530 9540 9548 9552 9554 9556 9561 9574
1437.1899 9592 9609 9623 9632 9637 9640 9640 9638 9637 9636 9635 9635 9636
1443.4575 9636 9636 9635 9633 9630 9626 9619 9611 9602 9595 9592 9593 9595
1449.7250 9595 9594 9589 9583 9576 9570 9566 9562 9558 9552 9546 9539 9532
1455.9926 9525 9516 9504 9491 9480 9475 9474 9475 9476 9477 9476 9475 9474
1462.2600 9473 9472 9471 9472 9478 9491 9510 9530 9545 9557 9565 9572 9578
1468.5276 9582 9585 9586 9584 9579 9571 9558 9542 9529 9526 9530 9536 9540
1474.7950 9542 9542 9542 9543 9545 9548 9551 9552 9551 9547 9543 9538 9534
1481.0626 9532 9533 9534 9534 9533 9530 9524 9518 9510 9503 9497 9492 9487
1487.3301 9479 9470 9457 9442 9428 9421 9425 9437 9450 9459 9464 9465 9463
1493.5977 9460 9454 9447 9439 9428 9417 9407 9400 9396 9393 9392 9391 9391
1499.8651 9391 9389 9385 9379 9373 9365 9358 9350 9342 9331 9318 9299 9274
1506.1327 9245 9228 9227 9231 9234 9235 9233 9231 9229 9227 9225 9223 9221
1512.4001 9219 9214 9207 9197 9184 9168 9150 9132 9117 9110 9111 9117 9121
1518.6677 9122 9119 9111 9099 9089 9092 9118 9155 9185 9206 9221 9233 9245
1524.9352 9260 9276 9292 9305 9315 9325 9337 9352 9369 9382 9392 9396 9395
1531.2028 9390 9383 9372 9361 9351 9346 9347 9351 9356 9359 9359 9357 9352
1537.4702 9344 9333 9321 9315 9323 9343 9363 9377 9388 9396 9403 9407 9408
1543.7378 9409 9412 9419 9432 9448 9461 9471 9476 9475 9470 9459 9446 9433
1550.0052 9424 9421 9421 9421 9418 9412 9404 9393 9381 9370 9361 9356 9351
1556.2728 9345 9338 9328 9313 9296 9299 9342 9392 9426 9447 9460 9468 9474
1562.5403 9477 9478 9477 9476 9475 9475 9476 9478 9478 9475 9470 9461 9451
1568.8079 9443 9441 9448 9456 9462 9463 9461 9456 9449 9442 9433 9425 9415
1575.0753 9404 9392 9384 9384 9388 9394 9398 9400 9400 9399 9396 9392 9386
1581.3429 9381 9376 9372 9368 9365 9361 9357 9352 9348 9344 9341 9337 9334
1587.6105 9330 9326 9322 9319 9317 9316 9316 9317 9318 9317 9314 9310 9304
1593.8779 9297 9292 9288 9287 9288 9290 9292 9295 9298 9301 9304 9307 9310
1600.1455 9313 9317 9321 9328 9337 9349 9363 9377 9391 9404 9416 9428 9441
1606.4130 9453 9465 9476 9488 9501 9515 9533 9552 9572 9590 9606 9621 9636
1612.6805 9652 9667 9681 9691 9697 9700 9701 9705 9719 9740 9761 9777 9788
1618.9480 9796 9803 9808 9813 9817 9818 9818 9817 9816 9820 9829 9842 9854
1625.2156 9863 9869 9871 9870 9870 9872 9878 9886 9895 9902 9906 9909 9911
1631.4830 9914 9918 9922 9925 9927 9926 9921 9909 9894 9881 9878 9881 9888
1637.7506 9895 9902 9907 9911 9913 9914 9914 9915 9916 9918 9921 9922 9922
1644.0181 9920 9915 9906 9892 9874 9856 9845 9846 9857 9872 9886 9897 9905
1650.2856 9908 9908 9903 9892 9871 9837 9812 9823 9847 9866 9881 9892 9901
1656.5531 9908 9914 9918 9921 9924 9925 9926 9924 9921 9914 9905 9894 9885
1662.8207 9881 9883 9890 9896 9901 9904 9906 9905 9903 9898 9891 9881 9873
1669.0881 9868 9868 9870 9872 9874 9877 9882 9889 9896 9901 9902 9899 9893
1675.3557 9887 9886 9890 9894 9897 9897 9895 9890 9884 9880 9878 9880 9884
1681.6232 9886 9884 9875 9858 9829 9806 9813 9836 9855 9866 9871 9873 9872
1687.8907 9871 9870 9871 9873 9877 9881 9884 9888 9892 9895 9897 9898 9896
1694.1582 9888 9875 9855 9834 9824 9828 9838 9846 9851 9852 9848 9840 9833
1700.4258 9840 9857 9871 9880 9885 9886 9883 9878 9871 9866 9863 9864 9869
1706.6932 9876 9883 9890 9894 9896 9895 9892 9888 9885 9883 9883 9881 9879
1712.9608 9875 9869 9864 9861 9860 9859 9856 9850 9839 9827 9823 9831 9846
1719.2283 9859 9867 9872 9874 9876 9877 9878 9879 9881 9884 9886 9889 9891
1725.4958 9892 9891 9889 9886 9882 9877 9872 9867 9862 9860 9862 9865 9868
1731.7633 9870 9868 9863 9854 9846 9848 9859 9872 9882 9888 9892 9892 9889
1738.0309 9884 9878 9873 9871 9874 9878 9879 9876 9869 9860 9850 9843 9842
1744.2983 9845 9849 9851 9850 9846 9840 9835 9831 9830 9831 9832 9831 9827
1750.5659 9822 9820 9822 9829 9838 9845 9850 9852 9851 9848 9843 9836 9829
1756.8334 9823 9820 9819 9822 9824 9826 9826 9823 9817 9811 9809 9811 9817
1763.1010 9822 9825 9826 9826 9825 9823 9821 9816 9810 9801 9794 9789 9787
1769.3684 9787 9787 9785 9781 9777 9776 9781 9787 9792 9794 9794 9793 9793
1775.6360 9795 9797 9800 9801 9801 9799 9797 9794 9791 9789 9790 9793 9798
1781.9034 9804 9808 9810 9809 9806 9802 9800 9799 9800 9801 9801 9801 9800
1788.1710 9800 9800 9799 9797 9793 9787 9780 9776 9777 9784 9792 9799 9802
1794.4385 9800 9796 9791 9786 9783 9784 9786 9788 9790 9790 9788 9786 9783
1800.7061 9781 9779 9778 9778 9781 9785 9790 9793 9796 9796 9795 9794 9792
1806.9735 9790 9787 9784 9780 9775 9770 9767 9765 9765 9766 9767 9767 9766
1813.2411 9765 9764 9765 9768 9772 9777 9782 9786 9788 9789 9788 9788 9787
1819.5085 9788 9789 9790 9790 9790 9790 9790 9791 9791 9789 9784 9780 9778
1825.7761 9782 9789 9795 9798 9795 9787 9776 9766 9761 9763 9769 9774 9778
1832.0436 9781 9784 9788 9793 9798 9801 9800 9797 9791 9786 9783 9784 9789
1838.3112 9795 9800 9801 9798 9792 9785 9779 9775 9773 9772 9771 9770 9768
1844.5786 9765 9762 9758 9754 9751 9751 9756 9765 9776 9788 9796 9800 9800
1850.8462 9796 9792 9787 9784 9781 9779 9777 9777 9778 9780 9783 9786 9788
1857.1136 9787 9784 9779 9774 9770 9767 9767 9768 9771 9773 9775 9778 9781
1863.3812 9785 9790 9793 9792 9787 9779 9770 9764 9762 9763 9768 9773 9778
1869.6487 9781 9781 9780 9777 9773 9769 9767 9765 9765 9767 9770 9775 9780
1875.9163 9786 9792 9797 9800 9801 9797 9790 9780 9769 9760 9754 9751 9750
1882.1837 9751 9754 9759 9767 9775 9783 9787 9789 9787 9784 9779 9773 9768
1888.4513 9766 9771 9783 9801 9818 9828 9828 9820 9807 9792 9777 9763 9751
1894.7188 9742 9740 9745 9756 9770 9781 9787 9787 9783 9779 9777 9777 9778
1900.9863 9779 9777 9776 9775 9776 9779 9781 9783 9782 9780 9776 9772 9769
1907.2538 9766 9764 9765 9768 9771 9773 9772 9770 9767 9763 9760 9757 9754
1913.5214 9752 9752 9754 9756 9755 9751 9745 9739 9736 9740 9749 9759 9765
1919.7888 9766 9761 9752 9739 9727 9719 9719 9728 9742 9754 9758 9754 9742
1926.0564 9727 9716 9714 9722 9734 9745 9752 9753 9752 9753 9759 9770 9783
1932.3239 9794 9799 9799 9797 9795 9794 9793 9791 9788 9784 9779 9773 9764
1938.5914 9749 9730 9709 9690 9679 9676 9683 9696 9711 9725 9735 9741 9743
1944.8589 9743 9742 9740 9737 9734 9732 9733 9739 9752 9771 9790 9803 9807
1951.1265 9800 9789 9777 9769 9765 9765 9765 9765 9765 9762 9756 9747 9735
1957.3939 9724 9720 9724 9739 9761 9782 9795 9797 9789 9777 9769 9771 9787
1963.6615 9814 9845 9871 9887 9890 9884 9871 9856 9840 9823 9801 9770 9726
1969.9290 9674 9622 9584 9572 9589 9627 9674 9717 9753 9785 9816 9847 9872
1976.1965 9884 9879 9862 9838 9813 9789 9766 9746 9733 9731 9739 9751 9761
1982.4640 9764 9761 9754 9746 9742 9741 9744 9749 9751 9747 9732 9706 9677
1988.7316 9653 9641 9645 9664 9691 9721 9747 9763 9766 9759 9748 9741 9745
1994.9990 9760 9782 9803 9814 9812 9800 9785 9775 9775 9783 9795 9807 9815
2001.2666 9820 9824 9827 9826 9818 9800 9774 9746 9727 9725 9743 9775 9807
2007.5341 9827 9827 9815 9805 9808 9828 9856 9873 9866 9834 9789 9753 9739
2013.8016 9750 9773 9794 9799 9788 9765 9738 9716 9702 9700 9713 9740 9771
2020.0691 9788 9776 9731 9663 9601 9567 9576 9619 9673 9718 9740 9743 9741
2026.3367 9744 9754 9765 9768 9763 9753 9746 9745 9750 9754 9754 9750 9749
2032.6041 9756 9773 9796 9818 9833 9838 9833 9822 9806 9787 9767 9752 9745
2038.8717 9751 9769 9793 9813 9822 9818 9806 9794 9790 9795 9803 9804 9788
2045.1392 9753 9705 9656 9620 9610 9628 9671 9724 9772 9801 9805 9788 9760
2051.4067 9734 9719 9716 9724 9736 9746 9750 9751 9754 9761 9772 9779 9777
2057.6743 9761 9738 9715 9703 9706 9719 9736 9750 9758 9763 9766 9770 9771
2063.9417 9768 9760 9750 9741 9738 9739 9743 9746 9744 9735 9719 9702 9691
2070.2092 9690 9701 9719 9735 9745 9747 9742 9736 9730 9724 9715 9706 9701
2076.4768 9704 9718 9742 9769 9792 9803 9800 9784 9760 9735 9716 9706 9708
2082.7444 9718 9729 9736 9739 9740 9742 9749 9759 9769 9774 9770 9756 9737
2089.0117 9717 9702 9696 9699 9711 9726 9738 9743 9739 9730 9721 9717 9719
2095.2793 9724 9727 9725 9720 9714 9710 9710 9711 9712 9711 9709 9709 9713
2101.5469 9719 9726 9732 9735 9737 9738 9739 9741 9741 9739 9735 9727 9716
2107.8145 9705 9696 9688 9684 9683 9685 9692 9704 9720 9738 9754 9764 9767
2114.0818 9763 9755 9746 9737 9732 9732 9738 9749 9764 9776 9780 9772 9754
2120.3494 9730 9707 9692 9686 9689 9699 9711 9725 9736 9744 9749 9748 9744
2126.6169 9738 9733 9729 9725 9719 9709 9694 9678 9667 9665 9672 9686 9701
2132.8845 9713 9719 9726 9736 9751 9767 9779 9779 9768 9747 9724 9703 9690
2139.1519 9687 9694 9710 9730 9749 9760 9761 9753 9742 9733 9726 9719 9708
2145.4194 9692 9678 9672 9680 9700 9727 9751 9768 9776 9777 9774 9768 9754
2151.6870 9732 9701 9665 9635 9620 9627 9657 9704 9753 9788 9795 9774 9736
2157.9546 9698 9675 9669 9672 9673 9666 9656 9652 9661 9684 9717 9754 9787
2164.2219 9806 9804 9777 9733 9685 9653 9647 9668 9703 9735 9750 9744 9722
2170.4895 9697 9678 9668 9665 9663 9655 9642 9629 9624 9631 9649 9670 9685
2176.7571 9688 9682 9675 9674 9683 9699 9719 9738 9757 9774 9791 9805 9814
2183.0247 9815 9809 9795 9778 9759 9742 9729 9720 9711 9697 9676 9652 9634
2189.2920 9631 9645 9674 9707 9736 9759 9776 9790 9800 9801 9791 9772 9753
2195.5596 9743 9747 9761 9774 9779 9772 9756 9738 9725 9720 9725 9739 9758
2201.8271 9775 9782 9773 9748 9715 9686 9672 9678 9700 9729 9751 9760 9754
2208.0947 9739 9725 9720 9725 9737 9748 9750 9740 9723 9707 9698 9696 9697
2214.3621 9695 9688 9680 9677 9684 9700 9718 9732 9738 9739 9739 9742 9747
2220.6296 9749 9745 9734 9719 9706 9699 9700 9707 9715 9719 9716 9706 9692
2226.8972 9679 9670 9668 9672 9681 9691 9699 9704 9705 9702 9699 9697 9698
2233.1648 9702 9707 9710 9710 9708 9706 9707 9711 9719 9730 9741 9750 9755
2239.4321 9759 9764 9770 9776 9780 9776 9763 9740 9714 9691 9677 9676 9688
2245.6997 9708 9728 9742 9748 9746 9740 9735 9733 9732 9731 9726 9718 9712
2251.9673 9709 9711 9717 9722 9724 9721 9714 9706 9701 9699 9700 9703 9706
2258.2349 9707 9704 9696 9684 9672 9665 9666 9676 9693 9710 9723 9729 9730
2264.5022 9728 9727 9726 9726 9727 9727 9728 9730 9733 9735 9735 9731 9726
2270.7698 9720 9717 9716 9717 9717 9715 9712 9708 9706 9708 9714 9723 9734
2277.0374 9743 9749 9747 9739 9726 9711 9699 9693 9692 9695 9701 9708 9715
2283.3049 9720 9723 9723 9719 9713 9707 9703 9701 9701 9702 9704 9707 9711
2289.5723 9718 9725 9733 9739 9743 9743 9741 9737 9734 9733 9733 9736 9739
2295.8398 9742 9744 9745 9744 9740 9733 9725 9718 9715 9719 9727 9740 9751
2302.1074 9760 9763 9762 9758 9754 9753 9754 9757 9760 9762 9762 9761 9760
2308.3750 9760 9762 9765 9768 9768 9766 9762 9760 9762 9768 9777 9787 9794
2314.6423 9797 9796 9793 9792 9795 9801 9811 9822 9832 9841 9847 9851 9853
2320.9099 9854 9853 9852 9850 9850 9851 9857 9868 9881 9895 9906 9913 9916
2327.1775 9918 9920 9922 9923 9922 9919 9918 9921 9930 9943 9955 9960 9956
2333.4451 9946 9936 9933 9939 9954 9974 9990 9998 9995 9986 9973 9961 9952
2339.7124 9945 9940 9938 9940 9946 9953 9959 9960 9955 9945 9934 9925 9918
2345.9800 9912 9902 9890 9878 9867 9859 9856 9856 9861 9870 9884 9903 9925
2352.2476 9950 9973 9993 10009 10025 10044 10070 10099 10125 10136 10131 10114
2358.0330 10096 10088 10093 10105 10113 10110 10096 10076 10058 10047 10047
2363.3362 10058 10079 10104 10124 10133 10129 10113 10092 10073 10056 10041
2368.6394 10023 10001 9975 9947 9919 9893 9869 9849 9835 9827 9823 9821 9817
2374.9070 9811 9802 9793 9784 9778 9773 9769 9764 9759 9753 9749 9745 9743
2381.1746 9742 9739 9735 9729 9720 9711 9702 9694 9689 9687 9686 9688 9689
2387.4421 9692 9694 9696 9699 9701 9703 9704 9702 9700 9696 9692 9689 9687
2393.7095 9688 9689 9692 9694 9695 9696 9697 9698 9700 9702 9703 9701 9696
2399.9771 9690 9684 9681 9682 9686 9692 9698 9703 9705 9704 9701 9697 9693
2406.2446 9689 9687 9686 9688 9692 9696 9699 9700 9699 9698 9697 9699 9702
2412.5122 9703 9702 9697 9691 9685 9683 9684 9687 9691 9692 9692 9691 9689
2418.7795 9689 9690 9691 9691 9691 9692 9695 9701 9707 9713 9715 9712 9704
2425.0471 9694 9685 9679 9676 9677 9680 9683 9684 9685 9685 9684 9683 9683
2431.3147 9683 9685 9688 9692 9696 9699 9701 9702 9702 9700 9698 9695 9691
2437.5823 9687 9684 9680 9677 9675 9673 9673 9675 9678 9681 9683 9685 9685
2443.8496 9686 9688 9690 9692 9693 9691 9688 9684 9682 9681 9681 9683 9684
2450.1172 9687 9689 9692 9695 9695 9693 9690 9685 9682 9680 9680 9680 9681
2456.3848 9680 9680 9680 9680 9681 9683 9684 9684 9684 9684 9685 9686 9689
2462.6523 9692 9695 9696 9696 9693 9689 9684 9680 9677 9677 9680 9684 9688
2468.9197 9691 9691 9691 9689 9688 9688 9689 9691 9692 9693 9692 9691 9688
2475.1873 9685 9681 9679 9678 9680 9684 9690 9696 9701 9704 9704 9703 9700
2481.4548 9696 9691 9688 9685 9685 9687 9690 9692 9691 9689 9685 9683 9681
2487.7224 9681 9681 9682 9683 9684 9684 9683 9681 9679 9677 9676 9676 9679
2493.9897 9683 9687 9690 9692 9692 9691 9689 9688 9689 9692 9695 9695 9692
2500.2573 9688 9683 9682 9684 9688 9692 9695 9696 9696 9695 9695 9694 9692
2506.5249 9690 9687 9685 9683 9682 9681 9679 9677 9675 9673 9673 9675 9679
2512.7925 9683 9684 9683 9679 9674 9671 9672 9676 9682 9686 9687 9684 9678
2519.0598 9672 9669 9670 9675 9684 9693 9701 9706 9707 9705 9701 9695 9689
2525.3274 9684 9681 9680 9680 9682 9684 9686 9686 9686 9685 9682 9678 9674
2531.5950 9671 9669 9671 9675 9680 9685 9689 9692 9693 9694 9695 9696 9696
2537.8625 9696 9695 9693 9692 9690 9690 9692 9694 9697 9699 9699 9696 9692
2544.1299 9686 9682 9679 9678 9679 9680 9682 9684 9685 9686 9688 9688 9690
2550.3975 9691 9694 9699 9703 9707 9708 9706 9701 9695 9689 9685 9682 9680
2556.6650 9678 9675 9674 9673 9675 9679 9685 9690 9692 9692 9688 9683 9678
2562.9326 9675 9674 9675 9677 9679 9682 9684 9687 9690 9692 9692 9690 9684
2569.2000 9678 9672 9669 9669 9672 9675 9677 9677 9676 9673 9672 9672 9674
2575.4675 9678 9681 9683 9684 9684 9683 9681 9679 9677 9675 9676 9678 9681
2581.7351 9684 9687 9688 9687 9684 9681 9678 9675 9674 9675 9679 9685 9691
2588.0027 9696 9697 9694 9690 9686 9685 9685 9686 9687 9687 9685 9683 9682
2594.2703 9683 9685 9688 9690 9693 9696 9698 9698 9697 9694 9690 9686 9684
2600.5376 9682 9680 9680 9680 9681 9684 9688 9693 9696 9697 9697 9695 9694
2606.8052 9694 9694 9694 9693 9691 9688 9685 9683 9682 9682 9683 9686 9688
2613.0728 9691 9693 9694 9694 9694 9693 9694 9694 9695 9694 9692 9690 9688
2619.3403 9686 9685 9686 9688 9691 9693 9695 9696 9696 9696 9696 9696 9696
2625.6077 9696 9694 9692 9690 9689 9689 9690 9691 9693 9695 9697 9701 9703
2631.8752 9705 9704 9701 9697 9694 9692 9693 9695 9698 9700 9701 9700 9697
2638.1428 9694 9692 9690 9691 9692 9694 9695 9695 9696 9696 9696 9696 9696
2644.4104 9695 9693 9691 9690 9690 9691 9691 9691 9691 9691 9692 9693 9694
2650.6777 9694 9692 9691 9689 9688 9688 9690 9691 9693 9694 9695 9695 9695
2656.9453 9695 9694 9692 9690 9688 9686 9685 9685 9685 9687 9688 9690 9690
2663.2129 9690 9689 9688 9687 9686 9686 9686 9687 9688 9690 9692 9693 9693
2669.4805 9693 9692 9690 9688 9686 9685 9685 9685 9685 9685 9686 9686 9687
2675.7478 9688 9689 9691 9692 9693 9694 9694 9694 9693 9690 9686 9681 9678
2682.0154 9676 9676 9676 9675 9674 9673 9673 9674 9677 9680 9683 9684 9684
2688.2830 9682 9680 9677 9676 9676 9677 9679 9681 9681 9681 9679 9677 9675
2694.5505 9675 9676 9678 9679 9682 9684 9687 9690 9693 9696 9697 9698 9698
2700.8179 9697 9697 9697 9697 9697 9696 9694 9691 9689 9687 9687 9687 9687
2707.0854 9688 9688 9689 9690 9692 9695 9696 9697 9697 9698 9698 9698 9697
2713.3530 9694 9691 9688 9687 9687 9689 9691 9693 9694 9695 9695 9696 9696
2719.6206 9696 9696 9696 9695 9694 9694 9693 9692 9691 9691 9691 9692 9694
2725.8879 9696 9698 9699 9700 9700 9699 9699 9699 9699 9700 9700 9700 9699
2732.1555 9697 9694 9692 9690 9689 9689 9688 9687 9686 9685 9684 9684 9686
2738.4231 9688 9690 9691 9691 9690 9690 9690 9690 9691 9692 9692 9692 9691
2744.6907 9690 9689 9687 9686 9686 9686 9685 9685 9684 9683 9681 9680 9678
2750.9580 9678 9678 9680 9681 9683 9683 9682 9681 9680 9679 9679 9679 9679
2757.2256 9679 9679 9679 9680 9681 9681 9681 9681 9681 9682 9684 9686 9687
2763.4932 9688 9689 9689 9689 9688 9686 9685 9682 9681 9680 9681 9683 9686
2769.7607 9689 9692 9695 9696 9696 9695 9693 9691 9689 9689 9689 9691 9693
2776.0281 9694 9694 9693 9692 9692 9693 9694 9696 9695 9693 9689 9685 9684
2782.2957 9684 9686 9689 9692 9694 9695 9696 9696 9696 9696 9696 9696 9696
2788.5632 9695 9693 9690 9688 9685 9684 9683 9684 9685 9687 9690 9693 9695
2794.8308 9696 9695 9693 9691 9689 9688 9687 9687 9686 9686 9685 9686 9686
2801.0981 9688 9690 9690 9690 9687 9683 9678 9675 9673 9674 9676 9680 9682
2807.3657 9684 9684 9682 9681 9680 9679 9679 9678 9677 9676 9675 9675 9676
2813.6333 9678 9678 9678 9677 9676 9676 9676 9676 9677 9676 9675 9673 9669
2819.9009 9666 9663 9661 9661 9660 9660 9659 9659 9659 9659 9659 9659 9659
2826.1682 9658 9656 9653 9650 9646 9641 9636 9631 9627 9626 9626 9629 9633
2832.4358 9636 9639 9639 9638 9636 9634 9632 9632 9634 9639 9644 9650 9655
2838.7034 9660 9664 9667 9670 9672 9674 9676 9679 9683 9689 9697 9707 9716
2844.9709 9725 9731 9734 9736 9738 9741 9746 9753 9760 9768 9775 9781 9785
2851.2383 9786 9786 9786 9784 9782 9780 9777 9776 9776 9777 9779 9781 9782
2857.5059 9780 9777 9771 9764 9757 9752 9748 9747 9747 9749 9751 9751 9751
2863.7734 9751 9750 9749 9749 9748 9746 9743 9740 9737 9733 9730 9729 9728
2870.0410 9730 9731 9732 9732 9732 9731 9731 9731 9732 9732 9730 9726 9721
2876.3083 9717 9714 9713 9713 9713 9712 9709 9707 9705 9703 9703 9703 9705
2882.5759 9707 9710 9714 9717 9720 9721 9722 9722 9722 9722 9722 9723 9724
2888.8435 9725 9727 9730 9732 9735 9737 9739 9740 9740 9739 9737 9736 9735
2895.1111 9734 9735 9737 9739 9741 9743 9744 9745 9746 9747 9750 9752 9754
2901.3784 9755 9755 9755 9755 9756 9758 9759 9761 9764 9768 9772 9777 9782
2907.6460 9785 9788 9789 9791 9793 9796 9800 9804 9808 9813 9817 9822 9827
2913.9136 9831 9834 9837 9839 9841 9843 9846 9850 9855 9859 9864 9869 9873
2920.1812 9877 9880 9883 9885 9887 9888 9887 9885 9881 9877 9873 9869 9867
2926.4485 9864 9862 9859 9856 9852 9847 9843 9838 9833 9829 9825 9820 9814
2932.7161 9809 9804 9800 9797 9794 9790 9783 9776 9767 9760 9754 9751 9749
2938.9836 9749 9748 9748 9746 9744 9740 9735 9729 9723 9716 9711 9706 9704
2945.2512 9704 9706 9709 9712 9714 9716 9716 9716 9716 9716 9717 9720 9725
2951.5186 9731 9737 9743 9746 9747 9747 9746 9747 9749 9751 9753 9753 9752
2957.7861 9749 9745 9742 9740 9740 9742 9745 9748 9752 9754 9753 9749 9743
2964.0537 9735 9727 9721 9718 9717 9716 9715 9713 9709 9705 9702 9700 9698
2970.3213 9697 9696 9696 9695 9696 9696 9695 9694 9691 9688 9685 9682 9681
2976.5886 9681 9682 9683 9683 9683 9682 9681 9681 9681 9681 9681 9679 9676
2982.8562 9674 9672 9674 9678 9683 9689 9693 9694 9692 9688 9684 9682 9682
2989.1238 9683 9686 9687 9686 9684 9681 9678 9676 9675 9675 9676 9678 9679
2995.3914 9682 9684 9685 9684 9681 9676 9672 9668 9667 9668 9669 9671 9671
3001.6587 9671 9670 9669 9669 9670 9670 9669 9667 9664 9661 9658 9655 9654
3007.9263 9654 9654 9655 9655 9654 9652 9649 9647 9646 9648 9651 9655 9658
3014.1938 9660 9660 9658 9653 9649 9645 9643 9643 9644 9646 9647 9645 9642
3020.4614 9639 9637 9637 9637 9636 9635 9633 9632 9633 9635 9639 9642 9645
3026.7288 9646 9647 9647 9647 9647 9647 9647 9647 9648 9650 9652 9654 9653
3032.9963 9650 9646 9641 9636 9634 9632 9631 9630 9628 9625 9623 9623 9625
3039.2639 9629 9632 9634 9634 9633 9632 9631 9630 9627 9623 9619 9615 9613
3045.5315 9612 9614 9616 9618 9619 9619 9618 9616 9614 9613 9613 9613 9613
3051.7988 9612 9611 9609 9608 9607 9608 9608 9608 9608 9607 9606 9605 9605
3058.0664 9606 9606 9606 9606 9605 9603 9601 9600 9598 9596 9595 9594 9594
3064.3340 9594 9594 9593 9591 9588 9585 9585 9586 9589 9593 9597 9600 9602
3070.6016 9602 9603 9602 9601 9599 9596 9593 9590 9589 9588 9587 9587 9586
3076.8689 9586 9587 9589 9591 9594 9596 9596 9594 9589 9584 9577 9571 9566
3083.1365 9562 9560 9560 9561 9562 9563 9564 9565 9564 9562 9559 9554 9550
3089.4041 9547 9545 9545 9547 9548 9549 9548 9545 9542 9539 9536 9536 9537
3095.6716 9541 9546 9551 9556 9560 9561 9561 9558 9555 9552 9548 9546 9545
3101.9390 9546 9549 9552 9556 9559 9558 9554 9549 9544 9540 9540 9542 9544
3108.2065 9545 9545 9542 9540 9537 9535 9534 9534 9533 9532 9531 9531 9532
3114.4741 9533 9535 9537 9538 9537 9536 9533 9530 9527 9523 9519 9514 9510
3120.7417 9508 9507 9508 9510 9510 9508 9504 9498 9493 9490 9487 9486 9486
3127.0090 9486 9485 9483 9481 9478 9475 9472 9468 9464 9460 9457 9455 9455
3133.2766 9457 9459 9460 9459 9456 9452 9448 9445 9441 9437 9432 9426 9420
3139.5442 9414 9410 9407 9405 9403 9401 9400 9399 9398 9396 9393 9388 9383
3145.8118 9377 9372 9368 9365 9362 9358 9354 9350 9346 9342 9338 9334 9328
3152.0791 9322 9316 9311 9307 9306 9305 9304 9302 9300 9296 9293 9290 9288
3158.3467 9285 9282 9278 9274 9272 9272 9275 9280 9284 9286 9285 9283 9282
3164.6143 9283 9287 9292 9297 9301 9305 9310 9315 9323 9332 9341 9350 9357
3170.8818 9364 9370 9377 9383 9389 9395 9401 9408 9417 9427 9437 9446 9455
3177.1492 9463 9469 9475 9480 9485 9489 9494 9498 9503 9507 9510 9512 9514
3183.4167 9516 9519 9522 9527 9531 9536 9541 9546 9551 9555 9559 9561 9563
3189.6843 9565 9567 9570 9571 9571 9570 9569 9569 9570 9571 9572 9572 9571
3195.9519 9570 9570 9573 9578 9584 9590 9595 9600 9603 9606 9605 9603 9598
3202.2192 9594 9591 9590 9591 9591 9592 9592 9593 9595 9599 9602 9604 9604
3208.4868 9604 9603 9604 9607 9610 9612 9612 9610 9607 9604 9602 9602 9602
3214.7544 9604 9606 9608 9610 9610 9610 9608 9604 9600 9595 9592 9590 9591
3221.0220 9592 9593 9593 9590 9587 9583 9580 9578 9577 9577 9578 9579 9581
3227.2893 9583 9585 9586 9585 9581 9575 9568 9562 9556 9552 9549 9549 9549
3233.5569 9550 9551 9552 9552 9552 9551 9549 9545 9540 9535 9531 9530 9530
3239.8245 9530 9529 9526 9520 9513 9507 9502 9499 9497 9495 9492 9488 9484
3246.0920 9480 9477 9476 9474 9472 9467 9462 9456 9451 9447 9443 9439 9433
3252.3594 9427 9421 9415 9409 9404 9399 9396 9394 9394 9396 9398 9400 9400
3258.6270 9399 9397 9395 9394 9394 9394 9394 9395 9395 9395 9395 9394 9393
3264.8945 9392 9393 9396 9403 9412 9421 9428 9433 9437 9441 9446 9451 9457
3271.1621 9463 9470 9478 9487 9496 9502 9506 9508 9510 9514 9521 9531 9542
3277.4294 9552 9560 9566 9571 9576 9579 9582 9586 9589 9592 9595 9597 9598
3283.6970 9599 9602 9605 9608 9611 9613 9613 9614 9614 9615 9615 9616 9615
3289.9646 9613 9611 9609 9607 9607 9607 9609 9612 9617 9623 9628 9631 9631
3296.2322 9627 9619 9611 9604 9601 9602 9606 9613 9619 9623 9626 9627 9627
3302.4995 9626 9626 9625 9624 9622 9621 9619 9618 9616 9614 9609 9604 9597
3308.7671 9591 9588 9588 9590 9593 9596 9599 9601 9605 9610 9614 9615 9612
3315.0347 9605 9597 9591 9588 9589 9593 9597 9597 9593 9586 9575 9566 9558
3321.3022 9554 9553 9555 9558 9560 9559 9554 9547 9539 9531 9526 9525 9525
3327.5696 9527 9530 9533 9535 9537 9538 9536 9532 9527 9520 9515 9511 9509
3333.8372 9508 9506 9503 9497 9490 9482 9475 9471 9469 9468 9466 9462 9456
3340.1047 9451 9446 9443 9442 9440 9436 9430 9423 9414 9406 9398 9392 9387
3346.3723 9382 9375 9365 9353 9341 9329 9319 9312 9306 9299 9290 9280 9270
3352.6396 9259 9250 9239 9227 9214 9201 9190 9181 9177 9177 9179 9184 9191
3358.9072 9197 9202 9206 9209 9214 9221 9232 9245 9260 9274 9287 9300 9314
3365.1748 9330 9347 9366 9385 9403 9421 9438 9455 9470 9485 9498 9508 9516
3371.4424 9520 9523 9525 9526 9529 9534 9540 9548 9556 9563 9569 9574 9578
3377.7097 9581 9584 9587 9588 9589 9589 9588 9588 9589 9589 9590 9589 9588
3383.9773 9587 9587 9588 9590 9591 9591 9591 9590 9590 9592 9595 9600 9604
3390.2449 9608 9611 9614 9616 9617 9620 9622 9625 9627 9629 9631 9632 9634
3396.5125 9638 9644 9652 9659 9665 9668 9669 9667 9663 9660 9659 9660 9664
3402.7798 9670 9678 9685 9692 9696 9698 9699 9699 9699 9699 9700 9701 9702
3409.0474 9703 9704 9706 9709 9713 9716 9719 9721 9722 9722 9722 9722 9723
3415.3149 9724 9727 9730 9734 9738 9740 9743 9745 9749 9754 9759 9762 9763
3421.5825 9762 9759 9756 9756 9759 9764 9770 9775 9779 9781 9780 9778 9776
3427.8499 9776 9776 9777 9777 9777 9777 9778 9781 9786 9793 9799 9804 9806
3434.1174 9807 9807 9807 9807 9807 9808 9810 9812 9815 9818 9819 9818 9815
3440.3850 9812 9810 9810 9812 9815 9819 9821 9822 9820 9815 9807 9800 9796
3446.6526 9796 9800 9807 9814 9819 9823 9825 9826 9827 9826 9823 9819 9814
3452.9199 9810 9806 9803 9803 9806 9810 9817 9824 9829 9832 9833 9832 9830
3459.1875 9828 9826 9824 9821 9818 9815 9812 9811 9811 9811 9812 9813 9812
3465.4551 9810 9807 9805 9804 9806 9812 9818 9824 9828 9828 9825 9819 9815
3471.7227 9812 9812 9812 9813 9812 9811 9809 9807 9807 9806 9806 9805 9803
3477.9900 9802 9800 9800 9801 9804 9806 9808 9809 9810 9810 9811 9812 9813
3484.2576 9813 9812 9811 9809 9806 9802 9798 9797 9798 9803 9808 9812 9813
3490.5251 9811 9808 9805 9804 9806 9810 9814 9816 9816 9815 9811 9808 9805
3496.7927 9803 9802 9801 9801 9801 9801 9802 9802 9801 9799 9797 9795 9792
3503.0601 9787 9783 9779 9777 9779 9785 9792 9798 9800 9797 9792 9787 9785
3509.3276 9786 9789 9792 9793 9792 9792 9793 9795 9797 9798 9797 9796 9795
3515.5952 9796 9798 9802 9804 9805 9804 9803 9803 9804 9806 9807 9804 9796
3521.8628 9786 9775 9768 9766 9770 9777 9782 9785 9785 9782 9777 9773 9770
3528.1301 9770 9772 9775 9778 9781 9781 9780 9779 9779 9780 9782 9783 9782
3534.3977 9779 9776 9774 9774 9775 9777 9778 9778 9778 9778 9780 9782 9785
3540.6653 9788 9791 9792 9790 9784 9775 9764 9754 9745 9740 9738 9737 9739
3546.9329 9742 9748 9756 9764 9771 9776 9778 9777 9775 9774 9776 9779 9783
3553.2002 9786 9787 9787 9786 9787 9789 9791 9793 9794 9791 9785 9778 9770
3559.4678 9764 9760 9759 9760 9761 9762 9763 9763 9763 9761 9756 9748 9738
3565.7354 9727 9722 9724 9733 9745 9756 9764 9768 9771 9773 9775 9778 9781
3572.0029 9783 9784 9782 9779 9773 9768 9764 9763 9764 9767 9769 9770 9769
3578.2705 9768 9767 9767 9769 9774 9780 9787 9793 9796 9797 9795 9790 9784
3584.5378 9776 9767 9755 9742 9728 9717 9711 9712 9720 9732 9745 9757 9766
3590.8054 9771 9774 9774 9773 9772 9772 9773 9776 9779 9782 9783 9782 9778
3597.0730 9773 9767 9764 9762 9763 9766 9767 9767 9764 9760 9759 9761 9767
3603.3406 9775 9782 9787 9787 9783 9775 9766 9757 9750 9745 9743 9745 9751
3609.6079 9758 9764 9765 9762 9754 9743 9732 9724 9724 9729 9738 9748 9756
3615.8755 9760 9760 9754 9743 9728 9714 9707 9711 9727 9750 9773 9792 9803
3622.1431 9806 9803 9796 9787 9778 9770 9762 9755 9747 9739 9729 9718 9704
3628.4106 9691 9687 9696 9712 9729 9743 9754 9762 9765 9765 9764 9764 9766
3634.6780 9771 9775 9778 9778 9777 9776 9775 9775 9773 9770 9764 9758 9753
3640.9456 9750 9749 9748 9747 9746 9746 9748 9750 9753 9752 9744 9728 9705
3647.2131 9679 9659 9649 9650 9664 9690 9724 9755 9773 9779 9776 9768 9758
3653.4807 9747 9735 9723 9715 9715 9726 9745 9764 9776 9779 9775 9765 9754
3659.7480 9744 9738 9735 9737 9742 9749 9756 9762 9766 9767 9767 9765 9763
3666.0156 9760 9757 9753 9747 9736 9722 9705 9688 9678 9681 9695 9712 9726
3672.2832 9735 9737 9730 9713 9688 9663 9662 9688 9718 9736 9743 9743 9739
3678.5508 9736 9737 9744 9754 9764 9771 9774 9772 9768 9765 9763 9764 9767
3684.8181 9768 9766 9760 9752 9744 9740 9744 9753 9761 9761 9754 9746 9742
3691.0857 9747 9756 9764 9768 9768 9766 9763 9761 9761 9764 9769 9776 9783
3697.3533 9790 9796 9798 9794 9784 9769 9753 9742 9741 9750 9764 9773 9776
3703.6208 9774 9771 9769 9772 9777 9782 9784 9781 9774 9763 9749 9734 9719
3709.8882 9705 9693 9683 9678 9683 9698 9715 9731 9745 9755 9763 9770 9773
3716.1558 9773 9770 9763 9756 9750 9747 9747 9749 9750 9748 9744 9738 9735
3722.4233 9734 9736 9739 9741 9742 9743 9745 9750 9759 9769 9779 9786 9788
3728.6909 9785 9776 9763 9747 9733 9724 9723 9728 9732 9728 9717 9701 9688
3734.9583 9687 9698 9712 9722 9724 9724 9724 9728 9733 9738 9742 9743 9741
3741.2258 9736 9728 9716 9699 9678 9659 9659 9685 9717 9737 9745 9746 9743
3747.4934 9735 9721 9700 9678 9661 9653 9652 9656 9663 9675 9693 9712 9730
3753.7610 9743 9753 9757 9758 9755 9750 9743 9735 9726 9715 9708 9708 9718
3760.0283 9734 9750 9761 9767 9767 9765 9761 9758 9755 9755 9757 9760 9763
3766.2959 9763 9758 9751 9741 9729 9720 9717 9722 9735 9749 9759 9765 9768
3772.5635 9769 9769 9768 9767 9766 9767 9767 9766 9764 9759 9752 9745 9739
3778.8311 9737 9740 9746 9753 9759 9763 9765 9766 9765 9762 9759 9757 9758
3785.0984 9761 9763 9765 9766 9765 9765 9766 9767 9767 9766 9763 9761 9760
3791.3660 9762 9765 9769 9771 9771 9768 9763 9758 9755 9754 9755 9756 9756
3797.6335 9755 9751 9745 9738 9727 9714 9699 9690 9692 9703 9719 9733 9745
3803.9011 9755 9762 9766 9765 9761 9754 9751 9752 9757 9761 9764 9765 9765
3810.1685 9764 9763 9763 9765 9767 9769 9769 9768 9763 9754 9745 9739 9743
3816.4360 9753 9764 9770 9772 9769 9761 9749 9733 9719 9716 9726 9742 9755
3822.7036 9763 9768 9768 9765 9759 9751 9742 9737 9737 9742 9750 9759 9766
3828.9712 9769 9770 9767 9763 9759 9758 9758 9759 9757 9754 9749 9744 9740
3835.2385 9738 9736 9733 9730 9727 9724 9721 9717 9712 9709 9711 9718 9727
3841.5061 9732 9732 9727 9720 9717 9723 9736 9753 9768 9780 9786 9785 9780
3847.7737 9771 9762 9755 9750 9746 9740 9730 9712 9687 9656 9632 9631 9659
3854.0413 9695 9719 9731 9734 9734 9734 9739 9747 9758 9768 9773 9775 9773
3860.3086 9769 9763 9758 9753 9748 9740 9730 9721 9716 9719 9730 9743 9752
3866.5762 9756 9753 9745 9731 9714 9701 9699 9713 9733 9747 9755 9756 9752
3872.8438 9746 9739 9736 9738 9743 9748 9754 9760 9765 9770 9772 9772 9766
3879.1113 9756 9745 9737 9736 9741 9746 9750 9749 9745 9738 9729 9721 9718
3885.3787 9722 9735 9749 9761 9769 9773 9773 9769 9760 9747 9731 9718 9712
3891.6462 9718 9730 9744 9756 9764 9769 9771 9771 9769 9766 9762 9757 9751
3897.9138 9747 9744 9743 9742 9739 9736 9732 9731 9730 9728 9724 9719 9715
3904.1814 9717 9725 9739 9754 9766 9773 9777 9779 9779 9778 9777 9775 9774
3910.4487 9772 9772 9772 9772 9773 9773 9773 9773 9773 9773 9771 9769 9767
3916.7163 9766 9765 9764 9762 9759 9755 9752 9751 9752 9754 9756 9757 9756
3922.9839 9754 9750 9748 9749 9753 9758 9762 9766 9767 9768 9768 9769 9768
3929.2515 9767 9763 9757 9749 9741 9735 9733 9736 9744 9754 9764 9772 9776
3935.5188 9778 9777 9775 9773 9771 9771 9771 9772 9774 9774 9773 9768 9760
3941.7864 9750 9742 9739 9741 9746 9751 9753 9754 9753 9754 9756 9759 9761
3948.0540 9761 9760 9759 9760 9763 9768 9773 9775 9775 9772 9768 9764 9762
3954.3215 9761 9763 9766 9769 9771 9773 9775 9777 9779 9781 9780 9778 9774
3960.5889 9770 9768 9768 9771 9773 9774 9772 9767 9761 9755 9752 9752 9753
3966.8564 9756 9759 9763 9768 9774 9778 9782 9782 9781 9780 9778 9778 9779
3973.1240 9779 9778 9776 9776 9776 9778 9778 9778 9776 9774 9773 9774 9778
3979.3916 9783 9786 9789 9789 9789 9789 9788 9785 9779 9772 9765 9763 9765
3985.6589 9771 9778 9783 9785 9785 9783 9781 9780 9779 9777 9775 9773 9772
3991.9265 9770 9768 9766 9765 9765 9768 9772 9776 9780 9782 9782 9782 9780
3998.1941 9779 9778 9779 9781 9784
##END= 
