##TITLE= INC322
##JCAMP-DX= 4.24
##DATA TYPE= INFRARED SPECTRUM
##ORIGIN= JASCO
##OWNER= 
##DATE= 22/04/13
##TIME= 14:30:28
##SPECTROMETER/DATA SYSTEM= 
##RESOLUTION= 
##DELTAX=   0.48211674
##XUNITS= 1/CM
##YUNITS= TRANSMITTANCE
##XFACTOR= 1.00000
##YFACTOR= 0.0001
##FIRSTX=   599.7532
##LASTX=  4000.1226
##NPOINTS=     7054
##FIRSTY=      0.95929
##MAXY=      1.21842
##MINY=      0.36969
##XYDATA= (X++(Y..Y))
599.7532 9593 9573 9566 9559 9542 9513 9478 9447 9426 9418 9419 9422 9426 9430
606.5029 9434 9435 9428 9409 9374 9325 9263 9189 9103 9004 8897 8788 8682 8584
613.2525 8492 8401 8304 8201 8100 8016 7972 7990 8081 8242 8450 8673 8887 9079
620.0021 9251 9411 9567 9721 9867 9996 10099 10169 10207 10217 10204 10175
625.7875 10133 10082 10025 9966 9905 9842 9774 9697 9610 9517 9423 9334 9255
632.0551 9187 9126 9069 9014 8958 8904 8853 8806 8765 8729 8693 8654 8608 8554
638.8047 8493 8428 8365 8311 8271 8249 8242 8241 8235 8209 8158 8080 7980 7868
645.5543 7753 7640 7531 7423 7315 7206 7099 6999 6914 6852 6818 6812 6832 6872
652.3040 6923 6979 7033 7082 7123 7152 7167 7168 7158 7145 7135 7133 7141 7160
659.0536 7194 7242 7302 7367 7428 7477 7512 7534 7544 7544 7536 7525 7521 7531
665.8032 7556 7588 7611 7600 7548 7529 7640 7819 7975 8078 8124 8116 8073 8020
672.5529 7993 8013 8089 8210 8359 8519 8672 8798 8880 8902 8867 8798 8731 8698
679.3025 8707 8748 8801 8850 8897 8951 9011 9065 9092 9085 9057 9035 9042 9074
686.0521 9105 9106 9060 8981 8894 8817 8745 8657 8529 8352 8137 7912 7707 7552
692.8018 7473 7493 7620 7845 8141 8467 8781 9058 9291 9484 9647 9786 9897 9980
699.5514 10036 10075 10112 10160 10225 10303 10380 10436 10456 10433 10374
704.8547 10297 10225 10179 10167 10187 10224 10264 10292 10304 10299 10281
710.1580 10256 10234 10224 10234 10263 10300 10329 10332 10301 10238 10150
715.4612 10046 9931 9811 9692 9584 9496 9436 9408 9414 9453 9524 9620 9732
721.7288 9844 9941 10014 10061 10088 10108 10130 10160 10193 10219 10230 10218
727.5142 10187 10142 10092 10044 10002 9966 9935 9905 9875 9840 9798 9750 9697
733.7817 9641 9586 9538 9499 9473 9458 9452 9448 9444 9435 9420 9400 9378 9354
740.5313 9331 9306 9275 9232 9172 9094 9005 8914 8830 8757 8692 8629 8562 8491
747.2809 8417 8346 8279 8218 8160 8107 8061 8027 8010 8014 8039 8079 8123 8159
754.0306 8177 8172 8144 8099 8041 7973 7900 7833 7789 7787 7837 7931 8045 8147
760.7802 8214 8238 8230 8209 8194 8194 8213 8249 8301 8365 8440 8522 8609 8697
767.5298 8787 8880 8975 9075 9180 9289 9400 9511 9620 9731 9848 9978 10125
773.7974 10288 10458 10625 10781 10918 11037 11141 11232 11317 11398 11478
779.1006 11556 11629 11692 11738 11765 11771 11756 11726 11685 11639 11590
784.4039 11541 11488 11430 11363 11290 11214 11142 11077 11024 10979 10940
789.7072 10904 10868 10833 10803 10779 10762 10751 10743 10733 10720 10702
795.0105 10682 10662 10648 10641 10640 10639 10632 10619 10600 10585 10577
800.3138 10577 10580 10578 10563 10538 10507 10481 10468 10470 10485 10508
805.6171 10530 10549 10563 10574 10582 10588 10591 10588 10579 10566 10552
810.9203 10539 10527 10515 10502 10487 10472 10461 10455 10455 10462 10472
816.2236 10487 10502 10514 10513 10494 10450 10379 10280 10154 10001 9825 9627
822.0090 9410 9176 8924 8654 8374 8101 7861 7684 7592 7592 7672 7805 7954 8084
828.7587 8169 8195 8166 8098 8023 7976 7989 8083 8261 8507 8796 9095 9380 9633
835.5083 9850 10031 10179 10297 10388 10456 10504 10537 10558 10570 10575
840.8116 10576 10578 10584 10596 10609 10618 10618 10605 10583 10558 10536
846.1149 10523 10519 10523 10529 10534 10536 10535 10533 10532 10536 10547
851.4182 10568 10594 10624 10651 10673 10689 10702 10715 10732 10749 10765
856.7214 10775 10776 10765 10745 10718 10686 10652 10618 10586 10557 10532
862.0247 10511 10491 10469 10442 10407 10361 10303 10232 10151 10058 9954 9842
867.8101 9728 9622 9538 9490 9486 9527 9608 9716 9837 9954 10053 10127 10170
874.0776 10184 10171 10135 10081 10011 9927 9830 9721 9599 9464 9317 9158 8984
880.3452 8794 8588 8364 8128 7888 7658 7454 7294 7191 7157 7193 7294 7446 7630
887.0948 7825 8011 8170 8292 8369 8398 8380 8316 8209 8058 7864 7628 7353 7045
893.8444 6719 6391 6080 5807 5587 5431 5338 5294 5271 5233 5145 4988 4765 4514
900.5941 4296 4181 4227 4462 4877 5426 6049 6682 7279 7809 8261 8636 8939 9179
907.3437 9365 9506 9607 9673 9710 9717 9699 9654 9586 9494 9379 9247 9104 8966
914.0933 8848 8762 8716 8705 8717 8736 8746 8743 8731 8726 8743 8799 8899 9041
920.8430 9216 9408 9600 9777 9929 10046 10126 10169 10180 10164 10130 10087
926.6284 10044 10009 9987 9982 9995 10024 10066 10117 10170 10220 10264 10301
932.4138 10332 10358 10381 10402 10420 10433 10441 10441 10434 10417 10393
937.7170 10361 10323 10283 10242 10204 10169 10141 10121 10109 10107 10114
943.0203 10128 10147 10167 10184 10191 10185 10162 10118 10054 9969 9865 9745
948.8057 9616 9483 9354 9238 9144 9082 9060 9083 9151 9260 9404 9573 9755 9939
955.5554 10117 10281 10428 10557 10671 10772 10863 10944 11018 11085 11147
960.8586 11206 11261 11313 11363 11411 11460 11510 11561 11613 11663 11710
966.1619 11756 11802 11850 11899 11949 11996 12038 12072 12098 12115 12127
971.4652 12135 12141 12145 12147 12145 12139 12126 12106 12075 12029 11963
976.7685 11876 11772 11657 11541 11431 11333 11246 11167 11093 11019 10945
982.0718 10868 10789 10710 10636 10569 10516 10479 10460 10458 10469 10489
987.3751 10511 10528 10537 10539 10533 10523 10507 10482 10446 10395 10328
992.6783 10245 10147 10036 9916 9795 9686 9606 9572 9596 9681 9818 9991 10181
998.9459 10370 10542 10689 10806 10890 10939 10957 10951 10932 10915 10912
1004.2491 10931 10969 11018 11068 11108 11135 11151 11160 11166 11171 11174
1009.5524 11174 11170 11164 11156 11149 11141 11131 11117 11097 11070 11034
1014.8557 10989 10933 10867 10794 10720 10651 10596 10559 10539 10533 10531
1020.1590 10522 10493 10437 10349 10234 10102 9969 9851 9762 9713 9709 9748
1025.9445 9823 9920 10029 10138 10242 10341 10442 10548 10664 10786 10907
1031.2477 11019 11112 11180 11224 11247 11255 11253 11241 11219 11182 11127
1036.5510 11055 10967 10868 10756 10630 10485 10317 10124 9911 9688 9464 9252
1042.3364 9062 8905 8792 8736 8745 8825 8972 9179 9429 9704 9987 10262 10520
1048.6039 10752 10957 11135 11285 11410 11511 11588 11645 11682 11701 11705
1053.9072 11691 11660 11611 11547 11470 11385 11294 11196 11089 10969 10835
1059.2104 10687 10528 10364 10205 10064 9956 9895 9892 9946 10051 10193 10355
1064.9958 10520 10677 10819 10942 11047 11136 11211 11279 11341 11404 11469
1070.2992 11537 11611 11690 11771 11854 11933 12005 12067 12117 12154 12176
1075.6024 12184 12179 12163 12137 12102 12057 11999 11927 11840 11737 11621
1080.9058 11495 11363 11224 11081 10932 10779 10623 10466 10310 10160 10021
1086.2090 9901 9810 9759 9752 9790 9866 9968 10083 10196 10295 10373 10423
1091.9944 10442 10428 10383 10308 10206 10082 9939 9783 9617 9450 9287 9131
1097.7798 8986 8852 8726 8606 8489 8373 8258 8148 8045 7955 7883 7832 7805
1104.0474 7806 7836 7896 7987 8105 8242 8386 8525 8645 8742 8814 8864 8897
1110.3148 8918 8929 8933 8931 8926 8923 8926 8941 8972 9021 9085 9160 9236
1116.5824 9307 9366 9409 9433 9438 9421 9383 9323 9239 9133 9010 8875 8736
1122.8499 8605 8494 8413 8371 8374 8421 8508 8625 8759 8895 9019 9120 9192
1129.1174 9233 9244 9231 9196 9143 9078 9006 8936 8877 8835 8817 8826 8863
1135.3849 8929 9020 9133 9262 9399 9538 9672 9799 9916 10023 10122 10212 10293
1141.6525 10363 10421 10465 10494 10509 10513 10507 10496 10484 10474 10472
1146.9557 10480 10498 10523 10549 10566 10567 10544 10493 10409 10289 10132
1152.2590 9940 9725 9503 9301 9144 9052 9034 9085 9189 9324 9467 9601 9716
1158.5265 9806 9874 9924 9959 9982 9995 10000 9995 9983 9962 9933 9895 9847
1164.7941 9786 9715 9635 9555 9482 9425 9390 9381 9396 9431 9478 9530 9581
1171.0615 9628 9671 9710 9745 9774 9798 9814 9822 9825 9826 9828 9831 9834
1177.3291 9836 9833 9822 9802 9773 9735 9687 9629 9558 9473 9374 9262 9144
1183.5966 9027 8921 8837 8785 8774 8805 8877 8979 9099 9221 9334 9428 9499
1189.8641 9548 9577 9589 9587 9574 9552 9524 9491 9451 9405 9350 9284 9205
1196.1316 9113 9009 8894 8769 8638 8503 8373 8259 8170 8119 8114 8156 8243
1202.3992 8365 8510 8666 8821 8967 9097 9207 9297 9365 9413 9442 9455 9455
1208.6666 9443 9421 9391 9353 9308 9255 9198 9135 9069 9000 8927 8847 8760
1214.9342 8665 8564 8461 8364 8283 8226 8202 8214 8262 8344 8454 8583 8723
1221.2017 8864 9000 9125 9238 9339 9428 9507 9574 9629 9670 9698 9712 9715
1227.4692 9707 9690 9664 9630 9589 9543 9496 9452 9416 9394 9386 9392 9407
1233.7367 9426 9440 9444 9434 9408 9366 9308 9234 9144 9035 8907 8758 8586
1240.0043 8394 8185 7969 7756 7560 7397 7277 7209 7192 7224 7296 7402 7534
1246.2717 7689 7864 8055 8255 8457 8652 8834 8999 9144 9268 9369 9448 9506
1252.5393 9543 9562 9566 9555 9531 9495 9447 9389 9322 9247 9163 9073 8979
1258.8068 8884 8793 8710 8639 8582 8540 8511 8494 8488 8499 8531 8589 8669
1265.0743 8761 8849 8923 8981 9034 9100 9188 9290 9384 9443 9446 9388 9283
1271.3418 9160 9044 8957 8908 8895 8913 8953 9009 9073 9138 9202 9261 9314
1277.6094 9360 9400 9434 9462 9483 9497 9502 9497 9481 9457 9429 9404 9392
1283.8768 9401 9435 9493 9571 9659 9751 9838 9917 9984 10040 10083 10116 10142
1290.1444 10160 10174 10182 10187 10188 10186 10182 10176 10168 10155 10135
1295.4476 10108 10075 10037 9996 9954 9912 9869 9826 9783 9740 9696 9652 9606
1301.7152 9557 9503 9442 9374 9299 9220 9142 9072 9013 8969 8938 8912 8885
1307.9827 8849 8799 8737 8668 8603 8554 8532 8549 8609 8712 8851 9010 9175
1314.2502 9332 9473 9594 9696 9779 9846 9895 9930 9951 9961 9965 9964 9961
1320.5177 9954 9944 9930 9912 9893 9872 9852 9830 9807 9781 9755 9733 9719
1326.7853 9717 9727 9749 9780 9821 9871 9931 10002 10083 10171 10261 10351
1332.5707 10436 10513 10577 10627 10660 10677 10679 10670 10653 10631 10603
1337.8739 10570 10530 10485 10437 10390 10345 10300 10249 10185 10103 10002
1343.1772 9883 9756 9632 9527 9452 9414 9414 9447 9503 9571 9638 9698 9745
1349.4447 9779 9801 9814 9820 9822 9823 9824 9825 9828 9832 9838 9846 9853
1355.7123 9859 9860 9858 9851 9843 9835 9827 9820 9814 9807 9797 9784 9768
1361.9797 9751 9740 9737 9744 9755 9762 9761 9748 9725 9693 9654 9612 9571
1368.2473 9534 9504 9483 9471 9467 9467 9471 9477 9484 9491 9496 9499 9500
1374.5148 9498 9491 9477 9453 9416 9368 9310 9248 9190 9142 9108 9092 9092
1380.7823 9107 9135 9172 9214 9255 9287 9306 9305 9286 9248 9193 9122 9040
1387.0498 8953 8874 8812 8767 8737 8720 8721 8745 8797 8874 8966 9063 9158
1393.3174 9250 9343 9439 9536 9624 9692 9736 9757 9756 9733 9689 9631 9566
1399.5848 9506 9453 9406 9362 9322 9287 9257 9233 9214 9201 9195 9200 9214
1405.8524 9230 9241 9244 9237 9221 9198 9172 9146 9119 9094 9071 9051 9032
1412.1199 9016 8999 8978 8952 8919 8876 8827 8775 8725 8682 8649 8630 8635
1418.3875 8686 8811 9006 9221 9404 9542 9645 9723 9784 9833 9876 9918 9964
1424.6549 10012 10056 10092 10115 10125 10123 10108 10082 10045 9998 9947 9899
1430.4403 9858 9823 9787 9747 9699 9644 9586 9529 9472 9410 9335 9242 9140
1436.7079 9054 9008 8990 8980 8963 8937 8903 8864 8824 8785 8747 8706 8661
1442.9753 8611 8556 8496 8434 8373 8318 8273 8243 8240 8275 8351 8456 8566
1449.2429 8661 8736 8794 8839 8874 8901 8918 8923 8915 8893 8860 8818 8769
1455.5104 8719 8675 8650 8657 8695 8753 8817 8879 8936 8987 9034 9079 9124
1461.7780 9169 9211 9246 9274 9299 9335 9392 9469 9551 9625 9686 9737 9783
1468.0454 9822 9853 9872 9876 9864 9835 9785 9718 9645 9599 9603 9642 9686
1474.3130 9719 9739 9751 9767 9795 9837 9887 9934 9971 9997 10012 10018 10019
1480.5804 10020 10026 10038 10053 10069 10082 10091 10092 10087 10074 10054
1485.8838 10027 9998 9970 9946 9925 9901 9874 9847 9835 9852 9897 9952 10000
1492.1512 10034 10054 10061 10056 10040 10013 9978 9943 9917 9907 9908 9914
1497.9366 9920 9929 9943 9961 9978 9991 9999 10002 10003 10004 10003 9996 9979
1504.2042 9946 9888 9798 9671 9536 9466 9493 9564 9638 9705 9765 9816 9856
1510.4717 9884 9902 9913 9922 9932 9942 9948 9945 9930 9900 9856 9804 9760
1516.7393 9747 9773 9816 9850 9863 9851 9810 9741 9655 9593 9601 9666 9737
1523.0067 9789 9819 9831 9830 9823 9817 9814 9815 9820 9830 9846 9867 9891
1529.2743 9910 9918 9914 9898 9871 9835 9793 9752 9724 9725 9752 9789 9822
1535.5417 9843 9849 9840 9814 9770 9702 9607 9495 9410 9395 9429 9473 9510
1541.8093 9542 9569 9593 9611 9624 9638 9661 9697 9741 9784 9815 9831 9831
1548.0768 9815 9786 9752 9728 9726 9747 9775 9795 9801 9790 9764 9729 9697
1554.3444 9683 9686 9694 9694 9677 9635 9555 9421 9235 9104 9174 9359 9516
1560.6118 9618 9679 9715 9733 9738 9732 9717 9700 9688 9689 9700 9713 9720
1566.8794 9714 9693 9655 9605 9556 9530 9542 9579 9616 9642 9655 9655 9645
1573.1469 9626 9599 9561 9512 9452 9389 9350 9355 9388 9424 9451 9468 9476
1579.4144 9478 9473 9463 9449 9431 9413 9394 9376 9359 9342 9327 9312 9298
1585.6819 9283 9269 9254 9239 9223 9206 9190 9174 9159 9145 9132 9118 9104
1591.9495 9087 9066 9041 9012 8979 8944 8909 8874 8840 8804 8764 8718 8665
1598.2170 8602 8528 8441 8337 8217 8079 7926 7760 7583 7401 7223 7059 6919
1604.4845 6808 6730 6685 6676 6702 6759 6844 6948 7070 7207 7352 7497 7628
1610.7521 7736 7816 7869 7898 7900 7876 7829 7763 7682 7584 7464 7311 7135
1617.0195 6972 6840 6728 6617 6496 6369 6245 6138 6057 6007 5996 6043 6186
1623.2871 6444 6772 7093 7361 7580 7772 7958 8153 8362 8576 8773 8933 9055
1629.5546 9145 9214 9270 9317 9357 9387 9404 9407 9395 9365 9319 9261 9215
1635.8221 9205 9230 9268 9307 9341 9368 9386 9394 9391 9378 9360 9338 9312
1642.0896 9282 9247 9205 9157 9101 9033 8951 8850 8738 8635 8563 8525 8504
1648.3572 8482 8449 8403 8344 8273 8188 8085 7952 7777 7574 7448 7447 7463
1654.6246 7444 7392 7312 7207 7077 6926 6756 6572 6375 6166 5947 5726 5506
1660.8922 5286 5060 4818 4564 4323 4127 3980 3872 3792 3735 3703 3697 3714
1667.1597 3755 3834 3981 4222 4540 4870 5166 5440 5732 6053 6375 6656 6876
1673.4272 7047 7204 7395 7661 7974 8251 8445 8575 8673 8757 8832 8901 8966
1679.6947 9031 9099 9163 9215 9246 9251 9226 9170 9103 9094 9194 9328 9426
1685.9623 9486 9518 9532 9533 9527 9518 9511 9506 9505 9503 9498 9485 9462
1692.2297 9429 9386 9335 9276 9204 9111 8990 8849 8723 8635 8569 8504 8430
1698.4973 8338 8215 8022 7719 7384 7151 7002 6867 6714 6532 6322 6097 5877
1704.7648 5685 5528 5404 5315 5266 5264 5309 5398 5534 5723 5966 6253 6553
1711.0323 6831 7066 7255 7404 7524 7621 7698 7754 7787 7796 7780 7735 7659
1717.2998 7556 7458 7406 7409 7440 7482 7526 7576 7632 7696 7770 7855 7950
1723.5674 8054 8158 8257 8350 8438 8524 8609 8687 8755 8810 8856 8901 8956
1729.8348 9028 9109 9184 9240 9274 9287 9286 9291 9343 9461 9599 9709 9785
1736.1024 9838 9875 9899 9908 9904 9890 9876 9877 9901 9937 9971 9990 9995
1742.3699 9989 9980 9979 9991 10011 10033 10049 10056 10053 10043 10032 10026
1748.1553 10028 10036 10045 10049 10049 10050 10061 10087 10123 10159 10189
1753.4586 10210 10220 10220 10210 10194 10178 10166 10166 10178 10197 10216
1758.7618 10229 10233 10227 10212 10190 10168 10159 10166 10186 10209 10229
1764.0652 10245 10255 10259 10256 10246 10229 10207 10187 10175 10175 10182
1769.3684 10186 10179 10157 10121 10079 10052 10060 10097 10138 10168 10185
1774.6718 10192 10195 10202 10214 10230 10244 10253 10251 10239 10219 10196
1779.9750 10180 10176 10186 10205 10224 10236 10236 10227 10212 10198 10190
1785.2783 10191 10199 10208 10215 10219 10220 10218 10212 10202 10186 10167
1790.5815 10144 10122 10108 10107 10122 10147 10170 10185 10190 10189 10186
1795.8849 10186 10193 10203 10211 10213 10206 10194 10180 10172 10171 10175
1801.1881 10183 10193 10206 10223 10243 10262 10279 10291 10298 10298 10294
1806.4915 10287 10281 10278 10277 10278 10276 10269 10260 10251 10247 10252
1811.7947 10262 10275 10287 10296 10303 10308 10311 10312 10308 10301 10291
1817.0980 10283 10277 10277 10279 10283 10284 10282 10278 10274 10273 10273
1822.4012 10271 10263 10247 10224 10201 10189 10197 10220 10246 10264 10265
1827.7046 10249 10217 10178 10146 10138 10158 10194 10228 10253 10268 10277
1833.0078 10284 10291 10297 10299 10296 10287 10277 10270 10269 10277 10290
1838.3112 10304 10317 10324 10326 10321 10312 10298 10282 10262 10240 10216
1843.6144 10197 10193 10208 10232 10255 10270 10276 10276 10275 10279 10287
1848.9177 10299 10309 10316 10318 10318 10317 10318 10319 10322 10326 10331
1854.2209 10336 10339 10339 10336 10331 10325 10319 10315 10313 10313 10314
1859.5243 10315 10317 10320 10325 10329 10333 10334 10332 10328 10322 10316
1864.8275 10310 10302 10293 10278 10256 10226 10192 10164 10156 10173 10210
1870.1309 10253 10290 10315 10330 10337 10341 10344 10346 10346 10346 10345
1875.4341 10346 10348 10352 10354 10354 10351 10347 10343 10340 10338 10340
1880.7374 10344 10349 10353 10354 10350 10343 10335 10330 10331 10338 10348
1886.0406 10358 10364 10363 10354 10338 10321 10308 10303 10308 10318 10327
1891.3440 10330 10329 10323 10314 10303 10290 10281 10279 10288 10308 10332
1896.6472 10355 10369 10375 10373 10368 10362 10358 10355 10352 10349 10346
1901.9506 10346 10348 10353 10359 10361 10360 10356 10352 10350 10351 10354
1907.2538 10356 10353 10345 10333 10319 10309 10306 10312 10326 10343 10360
1912.5571 10369 10369 10361 10350 10343 10341 10343 10344 10336 10318 10294
1917.8604 10275 10271 10284 10308 10332 10348 10349 10334 10310 10285 10272
1923.1637 10274 10292 10316 10339 10357 10368 10372 10370 10361 10346 10327
1928.4669 10307 10290 10282 10286 10301 10323 10344 10360 10368 10370 10372
1933.7703 10377 10386 10394 10397 10394 10386 10376 10367 10357 10345 10326
1939.0735 10301 10272 10245 10225 10215 10218 10233 10256 10277 10292 10299
1944.3768 10304 10313 10329 10352 10375 10393 10400 10399 10393 10390 10393
1949.6801 10398 10400 10391 10365 10326 10281 10244 10225 10228 10249 10277
1954.9834 10302 10317 10322 10321 10319 10320 10325 10334 10344 10351 10347
1960.2866 10329 10299 10266 10243 10242 10267 10313 10366 10412 10437 10436
1965.5900 10412 10374 10337 10312 10305 10311 10316 10312 10295 10275 10263
1970.8932 10273 10304 10345 10383 10406 10417 10423 10433 10450 10464 10463
1976.1965 10442 10408 10375 10357 10359 10375 10390 10395 10387 10371 10353
1981.4998 10341 10334 10328 10315 10292 10262 10237 10230 10245 10274 10302
1986.8031 10318 10318 10316 10324 10350 10389 10425 10446 10446 10431 10407
1992.1063 10382 10359 10342 10335 10340 10357 10378 10390 10386 10372 10362
1997.4097 10373 10410 10460 10496 10493 10443 10358 10263 10187 10145 10142
2002.7129 10170 10217 10273 10328 10375 10405 10412 10398 10373 10351 10341
2008.0162 10345 10359 10375 10392 10410 10428 10440 10437 10415 10376 10332
2013.3195 10298 10282 10280 10286 10294 10305 10325 10355 10388 10410 10408
2018.6228 10382 10342 10301 10276 10271 10286 10313 10347 10383 10415 10442
2023.9260 10462 10473 10474 10465 10445 10417 10383 10347 10311 10275 10241
2029.2294 10213 10200 10209 10243 10297 10350 10377 10358 10290 10194 10102
2034.5326 10044 10033 10065 10117 10170 10210 10240 10273 10321 10381 10442
2039.8359 10480 10477 10431 10360 10291 10251 10247 10271 10306 10332 10341
2045.1392 10340 10341 10357 10390 10432 10468 10484 10475 10449 10419 10401
2050.4424 10402 10416 10432 10440 10435 10420 10403 10390 10385 10384 10383
2055.7458 10378 10370 10364 10364 10371 10383 10393 10397 10391 10379 10368
2061.0491 10363 10368 10380 10390 10392 10382 10363 10344 10333 10335 10347
2066.3523 10364 10380 10391 10396 10394 10385 10370 10351 10332 10317 10308
2071.6555 10307 10312 10323 10337 10351 10361 10365 10366 10365 10368 10377
2076.9590 10391 10407 10418 10422 10417 10405 10392 10381 10374 10371 10368
2082.2622 10363 10356 10351 10352 10361 10374 10389 10398 10399 10392 10380
2087.5654 10367 10355 10346 10341 10340 10343 10348 10353 10359 10363 10369
2092.8687 10375 10382 10387 10390 10390 10389 10388 10390 10395 10399 10400
2098.1721 10394 10384 10373 10366 10366 10372 10380 10387 10388 10384 10376
2103.4753 10367 10355 10343 10331 10323 10321 10326 10335 10342 10342 10335
2108.7786 10323 10310 10303 10303 10311 10325 10340 10352 10355 10351 10341
2114.0818 10330 10323 10321 10325 10332 10340 10348 10354 10357 10359 10360
2119.3853 10362 10366 10372 10378 10384 10390 10398 10408 10420 10429 10431
2124.6885 10422 10403 10378 10353 10334 10321 10316 10317 10321 10327 10329
2129.9917 10325 10315 10301 10289 10285 10290 10303 10320 10336 10347 10353
2135.2949 10353 10348 10339 10329 10323 10323 10332 10344 10353 10355 10347
2140.5984 10334 10320 10310 10303 10293 10277 10256 10237 10226 10230 10247
2145.9016 10270 10296 10321 10347 10374 10395 10403 10392 10363 10328 10301
2151.2048 10291 10300 10320 10346 10376 10411 10453 10495 10524 10523 10487
2156.5081 10424 10358 10311 10300 10323 10359 10382 10370 10326 10264 10209
2161.8115 10175 10172 10197 10243 10304 10370 10435 10492 10535 10562 10573
2167.1147 10571 10559 10535 10497 10447 10395 10353 10332 10333 10346 10360
2172.4180 10364 10361 10359 10368 10387 10409 10424 10426 10420 10418 10430
2177.7212 10461 10501 10536 10548 10528 10480 10420 10374 10361 10386 10436
2183.0247 10487 10512 10503 10465 10419 10386 10372 10371 10369 10353 10326
2188.3279 10301 10294 10312 10353 10403 10446 10470 10472 10458 10437 10420
2193.6311 10414 10422 10439 10458 10469 10468 10458 10446 10437 10433 10428
2198.9343 10416 10391 10356 10323 10303 10304 10325 10358 10391 10418 10435
2204.2378 10445 10454 10465 10481 10500 10519 10534 10544 10548 10543 10527
2209.5410 10500 10461 10419 10383 10363 10366 10388 10421 10454 10476 10489
2214.8442 10495 10499 10501 10500 10490 10468 10437 10403 10374 10356 10353
2220.1475 10368 10398 10436 10471 10493 10495 10476 10447 10420 10404 10402
2225.4509 10408 10414 10411 10397 10378 10361 10352 10350 10352 10351 10345
2230.7542 10337 10333 10339 10353 10368 10374 10363 10339 10310 10291 10292
2236.0574 10312 10344 10375 10396 10403 10397 10386 10374 10368 10366 10365
2241.3606 10362 10355 10344 10335 10334 10344 10363 10385 10403 10409 10403
2246.6641 10389 10373 10358 10349 10344 10344 10347 10353 10361 10371 10380
2251.9673 10386 10388 10387 10382 10373 10360 10345 10329 10315 10308 10309
2257.2705 10319 10331 10341 10341 10331 10316 10303 10297 10300 10309 10319
2262.5737 10326 10326 10321 10315 10310 10308 10311 10317 10323 10328 10331
2267.8772 10332 10333 10335 10337 10335 10325 10309 10289 10273 10267 10273
2273.1804 10288 10304 10315 10316 10309 10298 10288 10282 10281 10285 10291
2278.4836 10297 10304 10308 10310 10310 10309 10308 10308 10308 10308 10306
2283.7869 10300 10292 10283 10274 10267 10261 10255 10248 10241 10234 10227
2289.0903 10222 10218 10215 10213 10209 10202 10191 10176 10160 10145 10133
2294.3936 10126 10122 10118 10114 10108 10104 10101 10098 10093 10084 10071
2299.6968 10054 10038 10025 10018 10015 10016 10018 10020 10019 10015 10007
2305.0000 9993 9976 9956 9934 9912 9889 9867 9846 9827 9811 9797 9786 9777
2311.2676 9769 9763 9757 9750 9742 9733 9723 9711 9695 9673 9644 9610 9574
2317.5352 9541 9514 9491 9471 9448 9422 9395 9370 9350 9334 9318 9299 9273
2323.8027 9242 9212 9187 9170 9160 9153 9146 9137 9124 9108 9091 9074 9058
2330.0701 9042 9029 9019 9011 9005 9003 9002 9002 9000 8993 8980 8965 8951
2336.3376 8945 8948 8955 8961 8959 8948 8928 8906 8884 8864 8845 8829 8819
2342.6052 8819 8834 8866 8911 8962 9018 9082 9157 9240 9321 9385 9425 9436
2348.8728 9420 9381 9324 9256 9185 9115 9051 8989 8929 8870 8815 8762 8707
2355.1401 8645 8576 8506 8446 8402 8371 8346 8319 8287 8257 8240 8244 8271
2361.4077 8313 8359 8399 8426 8443 8454 8469 8493 8528 8574 8627 8686 8748
2367.6753 8812 8876 8936 8990 9038 9080 9119 9158 9202 9251 9307 9365 9422
2373.9429 9477 9528 9579 9630 9681 9731 9776 9815 9846 9873 9900 9929 9961
2380.2102 9995 10030 10064 10098 10130 10159 10185 10207 10228 10247 10265
2385.5137 10282 10297 10308 10316 10322 10326 10329 10332 10335 10337 10339
2390.8169 10341 10345 10350 10355 10360 10363 10363 10363 10362 10361 10361
2396.1201 10361 10361 10361 10360 10358 10357 10355 10353 10353 10353 10355
2401.4233 10357 10359 10359 10359 10359 10359 10358 10358 10357 10357 10357
2406.7268 10357 10358 10358 10358 10356 10352 10348 10345 10344 10345 10348
2412.0300 10350 10351 10351 10349 10346 10345 10344 10344 10346 10346 10347
2417.3333 10346 10345 10344 10345 10347 10350 10354 10355 10353 10347 10337
2422.6365 10327 10319 10314 10313 10315 10320 10328 10337 10345 10350 10353
2427.9399 10352 10349 10346 10345 10345 10347 10348 10348 10346 10342 10338
2433.2432 10335 10334 10336 10343 10351 10360 10367 10370 10370 10367 10363
2438.5464 10360 10357 10357 10356 10356 10355 10353 10351 10350 10351 10354
2443.8496 10358 10362 10363 10361 10358 10354 10352 10350 10351 10353 10357
2449.1531 10361 10365 10368 10368 10365 10359 10355 10352 10354 10359 10367
2454.4563 10376 10382 10383 10380 10373 10364 10356 10350 10347 10348 10349
2459.7595 10352 10354 10355 10356 10356 10357 10359 10362 10365 10369 10371
2465.0627 10372 10371 10368 10365 10362 10359 10359 10361 10364 10367 10368
2470.3662 10366 10360 10353 10348 10349 10354 10361 10368 10372 10373 10370
2475.6694 10366 10362 10357 10352 10347 10343 10342 10344 10350 10358 10365
2480.9727 10371 10372 10370 10367 10362 10358 10355 10353 10352 10354 10358
2486.2759 10363 10368 10371 10371 10369 10366 10365 10367 10371 10378 10384
2491.5793 10389 10391 10391 10388 10384 10380 10375 10370 10365 10359 10354
2496.8826 10351 10351 10353 10358 10362 10364 10365 10365 10367 10370 10374
2502.1858 10376 10374 10368 10361 10356 10355 10359 10364 10370 10375 10377
2507.4890 10378 10378 10377 10374 10369 10363 10359 10357 10357 10359 10359
2512.7925 10358 10355 10354 10355 10358 10362 10364 10364 10363 10362 10363
2518.0957 10365 10369 10373 10377 10379 10379 10377 10374 10371 10367 10365
2523.3989 10363 10364 10365 10367 10368 10367 10364 10360 10356 10354 10355
2528.7021 10359 10364 10370 10376 10380 10382 10382 10381 10379 10378 10378
2534.0056 10380 10383 10388 10391 10391 10386 10376 10363 10349 10338 10331
2539.3088 10332 10339 10352 10366 10377 10384 10385 10380 10374 10368 10363
2544.6121 10359 10357 10355 10353 10353 10354 10355 10357 10359 10361 10364
2549.9153 10367 10371 10374 10377 10378 10379 10380 10381 10382 10382 10379
2555.2188 10372 10362 10353 10346 10345 10348 10354 10361 10365 10367 10367
2560.5220 10367 10367 10369 10369 10368 10365 10360 10355 10353 10353 10357
2565.8252 10363 10369 10375 10379 10381 10382 10383 10384 10385 10387 10387
2571.1284 10386 10382 10374 10365 10355 10349 10347 10350 10355 10360 10362
2576.4319 10361 10359 10356 10355 10356 10359 10363 10367 10371 10373 10372
2581.7351 10370 10365 10362 10360 10361 10363 10364 10364 10360 10356 10352
2587.0383 10350 10350 10350 10349 10345 10340 10335 10331 10329 10328 10328
2592.3418 10330 10335 10343 10352 10361 10366 10365 10360 10352 10345 10340
2597.6450 10339 10341 10343 10345 10345 10343 10339 10336 10335 10335 10337
2602.9482 10340 10343 10344 10342 10338 10334 10332 10334 10337 10339 10339
2608.2515 10335 10328 10322 10317 10315 10315 10315 10317 10319 10321 10323
2613.5549 10325 10326 10327 10328 10329 10331 10332 10333 10335 10337 10339
2618.8582 10342 10343 10342 10338 10334 10331 10330 10330 10331 10332 10331
2624.1614 10329 10328 10329 10333 10338 10344 10349 10351 10352 10350 10349
2629.4646 10348 10348 10349 10351 10352 10352 10351 10348 10346 10343 10341
2634.7681 10339 10337 10335 10334 10335 10339 10344 10350 10354 10356 10356
2640.0713 10353 10350 10348 10347 10349 10352 10355 10356 10354 10350 10345
2645.3745 10338 10333 10329 10327 10326 10326 10327 10328 10329 10330 10330
2650.6777 10330 10329 10330 10331 10333 10336 10338 10340 10340 10339 10338
2655.9812 10336 10335 10335 10334 10335 10335 10336 10337 10337 10337 10337
2661.2844 10337 10336 10335 10333 10332 10331 10332 10335 10339 10345 10351
2666.5876 10355 10357 10357 10355 10351 10348 10346 10346 10348 10351 10353
2671.8909 10354 10352 10349 10346 10344 10344 10346 10350 10353 10355 10356
2677.1943 10354 10352 10351 10350 10351 10352 10354 10354 10355 10355 10355
2682.4976 10354 10352 10351 10350 10351 10353 10356 10357 10359 10359 10359
2687.8008 10358 10357 10355 10354 10354 10355 10358 10362 10365 10366 10367
2693.1040 10366 10365 10364 10363 10362 10362 10361 10362 10362 10362 10361
2698.4075 10359 10357 10354 10353 10352 10352 10352 10350 10348 10345 10343
2703.7107 10343 10346 10350 10353 10355 10354 10351 10347 10342 10339 10338
2709.0139 10338 10339 10341 10342 10343 10345 10346 10348 10351 10355 10358
2714.3171 10361 10362 10362 10361 10360 10360 10360 10361 10363 10364 10365
2719.6206 10365 10365 10366 10366 10366 10366 10365 10363 10360 10359 10359
2724.9238 10360 10363 10365 10368 10369 10369 10369 10368 10366 10364 10361
2730.2271 10360 10360 10361 10363 10364 10364 10362 10360 10358 10357 10358
2735.5303 10358 10357 10355 10352 10350 10349 10349 10350 10350 10351 10350
2740.8337 10349 10347 10347 10347 10348 10349 10349 10349 10347 10345 10342
2746.1370 10339 10336 10333 10329 10326 10324 10322 10320 10319 10317 10315
2751.4402 10314 10313 10314 10316 10318 10318 10317 10314 10310 10305 10302
2756.7434 10300 10300 10300 10301 10301 10300 10298 10296 10295 10295 10295
2762.0469 10296 10296 10293 10290 10287 10285 10285 10286 10287 10286 10284
2767.3501 10281 10277 10274 10271 10269 10268 10267 10267 10268 10269 10270
2772.6533 10270 10269 10269 10269 10269 10269 10268 10266 10263 10259 10257
2777.9565 10256 10257 10257 10256 10254 10251 10249 10248 10249 10252 10256
2783.2600 10260 10262 10263 10263 10261 10259 10258 10258 10260 10262 10264
2788.5632 10266 10266 10265 10263 10260 10257 10253 10249 10246 10242 10240
2793.8665 10240 10240 10241 10241 10241 10240 10239 10238 10238 10238 10238
2799.1697 10239 10239 10239 10240 10242 10243 10244 10244 10243 10241 10239
2804.4731 10238 10237 10236 10234 10232 10230 10227 10227 10227 10229 10231
2809.7764 10233 10234 10234 10233 10231 10229 10229 10230 10231 10232 10232
2815.0796 10231 10231 10232 10234 10236 10238 10239 10240 10241 10242 10244
2820.3828 10247 10248 10249 10249 10247 10243 10239 10235 10231 10228 10227
2825.6863 10227 10228 10228 10225 10220 10212 10203 10196 10191 10188 10187
2830.9895 10186 10183 10177 10168 10156 10141 10123 10101 10075 10045 10012
2836.2927 9977 9944 9916 9897 9890 9896 9914 9941 9974 10008 10041 10069 10094
2842.5603 10113 10127 10137 10142 10143 10141 10137 10131 10125 10118 10111
2847.8635 10104 10097 10090 10082 10072 10059 10045 10028 10009 9988 9966 9942
2853.6489 9918 9893 9867 9839 9810 9778 9745 9712 9683 9659 9642 9632 9630
2859.9165 9634 9642 9653 9665 9676 9685 9693 9699 9702 9702 9698 9689 9676
2866.1841 9660 9640 9619 9598 9576 9556 9539 9526 9519 9519 9526 9538 9555
2872.4514 9573 9591 9608 9625 9641 9659 9679 9703 9732 9765 9802 9842 9883
2878.7190 9923 9960 9992 10020 10044 10063 10080 10095 10108 10119 10128 10133
2884.5044 10135 10135 10135 10135 10135 10133 10129 10120 10105 10085 10059
2889.8076 10026 9987 9940 9888 9834 9781 9736 9701 9681 9676 9687 9711 9747
2896.0752 9790 9839 9891 9944 9997 10046 10090 10126 10154 10175 10187 10193
2901.8606 10193 10186 10173 10157 10137 10115 10091 10064 10035 10002 9968
2907.1638 9933 9900 9869 9842 9821 9805 9796 9795 9802 9814 9831 9850 9870
2913.4314 9889 9908 9926 9943 9959 9975 9989 10003 10016 10028 10039 10048
2919.2168 10054 10057 10058 10058 10057 10057 10057 10057 10056 10055 10054
2924.5200 10054 10054 10053 10051 10047 10041 10036 10032 10031 10033 10037
2929.8235 10043 10051 10060 10070 10081 10090 10097 10099 10096 10088 10077
2935.1267 10064 10049 10035 10022 10011 10000 9989 9977 9963 9944 9922 9897
2940.9121 9869 9841 9814 9787 9763 9741 9721 9704 9689 9675 9661 9648 9634
2947.1797 9619 9605 9590 9574 9555 9534 9510 9486 9461 9437 9414 9393 9374
2953.4470 9361 9355 9357 9366 9380 9393 9403 9408 9410 9414 9423 9438 9459
2959.7146 9483 9509 9536 9563 9591 9620 9649 9677 9703 9730 9758 9789 9823
2965.9822 9858 9892 9922 9948 9969 9985 9996 10004 10008 10008 10003 9995 9983
2972.2498 9969 9951 9932 9910 9888 9866 9846 9829 9815 9806 9800 9801 9808
2978.5171 9823 9846 9876 9911 9950 9990 10029 10065 10097 10124 10146 10165
2984.3025 10183 10201 10218 10236 10253 10269 10284 10299 10313 10327 10340
2989.6060 10352 10361 10367 10370 10370 10369 10367 10365 10362 10360 10357
2994.9092 10355 10353 10349 10343 10334 10323 10311 10296 10280 10262 10242
3000.2124 10222 10204 10191 10185 10185 10192 10204 10221 10241 10264 10288
3005.5156 10311 10332 10350 10364 10375 10385 10395 10405 10415 10425 10435
3010.8191 10445 10455 10464 10472 10479 10484 10488 10491 10492 10491 10489
3016.1223 10486 10483 10481 10481 10485 10490 10496 10501 10502 10501 10498
3021.4255 10496 10495 10497 10500 10504 10506 10506 10505 10504 10503 10503
3026.7288 10503 10502 10502 10500 10500 10500 10502 10504 10508 10511 10514
3032.0322 10517 10518 10518 10517 10516 10514 10512 10510 10509 10508 10509
3037.3354 10512 10516 10520 10524 10527 10528 10527 10525 10521 10516 10513
3042.6387 10513 10516 10523 10532 10540 10544 10543 10538 10530 10524 10523
3047.9419 10526 10533 10542 10550 10556 10559 10561 10561 10558 10555 10551
3053.2454 10549 10550 10553 10558 10563 10565 10565 10565 10565 10568 10572
3058.5486 10575 10577 10578 10578 10577 10578 10580 10581 10582 10583 10584
3063.8518 10586 10588 10589 10588 10585 10581 10578 10577 10578 10581 10587
3069.1550 10594 10602 10610 10618 10622 10623 10621 10616 10613 10613 10617
3074.4585 10623 10628 10630 10629 10626 10621 10616 10611 10607 10604 10603
3079.7617 10603 10605 10605 10605 10603 10602 10602 10604 10607 10608 10606
3085.0649 10601 10596 10593 10593 10598 10604 10610 10615 10619 10622 10626
3090.3682 10630 10634 10638 10640 10641 10641 10639 10634 10629 10624 10621
3095.6716 10621 10625 10630 10636 10641 10643 10645 10647 10648 10648 10648
3100.9749 10645 10642 10640 10639 10640 10643 10647 10651 10655 10658 10660
3106.2781 10663 10665 10667 10670 10671 10670 10667 10662 10657 10651 10647
3111.5813 10645 10645 10647 10649 10651 10652 10652 10653 10653 10652 10650
3116.8848 10649 10647 10647 10647 10649 10651 10653 10654 10652 10650 10646
3122.1880 10644 10643 10643 10646 10649 10652 10653 10653 10653 10653 10655
3127.4912 10657 10659 10659 10657 10654 10649 10646 10642 10639 10637 10636
3132.7944 10637 10640 10642 10645 10645 10645 10645 10646 10649 10654 10658
3138.0979 10660 10661 10660 10658 10657 10657 10656 10655 10654 10653 10650
3143.4011 10646 10642 10637 10633 10631 10632 10634 10636 10638 10639 10638
3148.7043 10636 10632 10627 10620 10613 10608 10606 10607 10611 10615 10620
3154.0076 10625 10628 10630 10628 10622 10613 10604 10597 10596 10599 10604
3159.3110 10608 10609 10606 10601 10597 10593 10591 10588 10584 10579 10575
3164.6143 10572 10570 10568 10565 10561 10557 10556 10557 10562 10569 10575
3169.9175 10577 10573 10563 10550 10539 10530 10526 10525 10523 10518 10509
3175.2207 10499 10491 10486 10486 10490 10495 10499 10500 10499 10495 10490
3180.5242 10485 10481 10478 10476 10473 10468 10462 10455 10449 10444 10442
3185.8274 10442 10444 10447 10447 10446 10442 10438 10432 10426 10419 10412
3191.1306 10404 10397 10391 10386 10384 10382 10381 10379 10375 10370 10362
3196.4338 10354 10346 10340 10336 10335 10335 10334 10333 10331 10327 10322
3201.7373 10316 10308 10299 10287 10276 10266 10257 10250 10244 10237 10230
3207.0405 10224 10220 10217 10215 10213 10209 10205 10200 10195 10191 10186
3212.3438 10180 10174 10167 10162 10158 10157 10156 10154 10150 10144 10137
3217.6470 10129 10121 10113 10106 10100 10093 10085 10079 10075 10074 10076
3222.9504 10082 10088 10092 10093 10090 10084 10078 10073 10068 10064 10060
3228.2537 10057 10056 10056 10056 10055 10051 10044 10036 10027 10019 10012
3233.5569 10004 9996 9987 9980 9974 9972 9970 9968 9965 9962 9961 9960 9959
3239.8245 9955 9947 9934 9920 9908 9899 9894 9891 9889 9885 9878 9869 9859
3246.0920 9848 9836 9823 9811 9802 9796 9795 9795 9796 9795 9789 9779 9768
3252.3594 9758 9751 9748 9748 9747 9743 9736 9725 9714 9705 9699 9696 9696
3258.6270 9695 9691 9684 9674 9662 9651 9642 9636 9633 9631 9630 9629 9625
3264.8945 9619 9612 9604 9597 9591 9585 9580 9575 9570 9567 9564 9563 9561
3271.1621 9558 9553 9547 9540 9536 9535 9535 9534 9532 9528 9525 9525 9526
3277.4294 9529 9530 9529 9526 9524 9524 9525 9526 9525 9524 9523 9525 9531
3283.6970 9538 9546 9549 9548 9542 9533 9525 9519 9516 9516 9519 9523 9529
3289.9646 9535 9542 9549 9556 9562 9566 9567 9567 9568 9570 9574 9578 9582
3296.2322 9584 9586 9588 9591 9595 9599 9602 9605 9607 9611 9615 9619 9623
3302.4995 9625 9628 9632 9639 9649 9659 9669 9676 9679 9680 9681 9684 9688
3308.7671 9694 9700 9704 9706 9707 9708 9711 9716 9721 9726 9729 9733 9738
3315.0347 9743 9749 9754 9760 9765 9771 9777 9782 9786 9787 9786 9784 9784
3321.3022 9786 9793 9802 9812 9820 9823 9820 9812 9799 9788 9779 9777 9779
3327.5696 9786 9795 9804 9812 9818 9820 9819 9815 9809 9805 9803 9804 9808
3333.8372 9814 9818 9821 9821 9819 9816 9813 9811 9808 9803 9795 9785 9776
3340.1047 9769 9767 9770 9776 9782 9786 9788 9786 9782 9777 9771 9767 9765
3346.3723 9764 9764 9763 9758 9751 9743 9735 9729 9725 9722 9720 9718 9716
3352.6396 9714 9711 9708 9706 9704 9703 9704 9706 9709 9712 9715 9720 9727
3358.9072 9738 9749 9760 9768 9772 9772 9771 9772 9776 9784 9796 9810 9827
3365.1748 9845 9862 9879 9894 9907 9920 9934 9949 9966 9983 10001 10020 10040
3371.4424 10061 10082 10100 10115 10127 10138 10152 10171 10192 10216 10237
3376.7456 10255 10269 10279 10288 10298 10308 10321 10335 10350 10367 10383
3382.0488 10399 10412 10423 10432 10441 10449 10459 10470 10483 10496 10509
3387.3521 10522 10535 10547 10557 10565 10570 10573 10575 10577 10581 10586
3392.6555 10593 10602 10610 10619 10626 10633 10638 10644 10651 10662 10675
3397.9587 10690 10704 10713 10716 10713 10707 10701 10697 10697 10701 10708
3403.2620 10716 10724 10732 10741 10751 10762 10771 10778 10780 10777 10772
3408.5652 10768 10768 10774 10784 10795 10803 10807 10807 10806 10804 10805
3413.8687 10807 10809 10808 10806 10803 10802 10802 10805 10809 10811 10811
3419.1719 10808 10803 10797 10792 10790 10790 10791 10794 10796 10797 10799
3424.4751 10801 10803 10806 10806 10805 10802 10798 10796 10795 10794 10792
3429.7783 10789 10787 10787 10790 10794 10799 10802 10803 10802 10800 10797
3435.0818 10792 10786 10781 10778 10778 10783 10790 10798 10803 10803 10801
3440.3850 10797 10794 10793 10794 10798 10804 10810 10817 10822 10823 10818
3445.6882 10809 10797 10790 10790 10800 10815 10832 10844 10850 10851 10849
3450.9915 10846 10845 10845 10847 10852 10859 10867 10876 10883 10887 10887
3456.2949 10884 10879 10872 10867 10863 10860 10857 10852 10844 10836 10828
3461.5981 10824 10824 10827 10830 10830 10825 10814 10799 10783 10769 10759
3466.9014 10756 10756 10756 10756 10753 10749 10744 10738 10732 10726 10719
3472.2046 10714 10711 10709 10708 10706 10702 10697 10693 10691 10692 10696
3477.5081 10700 10702 10700 10694 10684 10673 10664 10657 10653 10653 10656
3482.8113 10662 10671 10680 10688 10692 10691 10686 10678 10670 10665 10664
3488.1145 10666 10669 10670 10670 10669 10669 10671 10676 10683 10691 10697
3493.4177 10701 10701 10700 10697 10697 10700 10708 10721 10737 10753 10764
3498.7212 10771 10774 10773 10769 10761 10751 10737 10724 10718 10721 10736
3504.0244 10761 10789 10819 10845 10868 10886 10898 10903 10902 10898 10895
3509.3276 10899 10913 10936 10965 10996 11025 11051 11072 11088 11099 11109
3514.6309 11118 11129 11139 11147 11149 11147 11141 11136 11135 11140 11148
3519.9343 11153 11150 11135 11110 11078 11046 11020 11003 10993 10985 10975
3525.2375 10960 10941 10919 10897 10878 10862 10849 10837 10826 10811 10793
3530.5408 10773 10752 10733 10717 10704 10693 10679 10660 10638 10614 10594
3535.8440 10581 10576 10575 10575 10571 10564 10556 10547 10541 10535 10529
3541.1475 10519 10505 10486 10466 10448 10432 10421 10412 10403 10392 10381
3546.4507 10373 10372 10380 10394 10410 10421 10423 10416 10402 10385 10371
3551.7539 10364 10366 10374 10385 10397 10406 10413 10417 10418 10418 10418
3557.0571 10416 10412 10403 10391 10379 10370 10367 10371 10376 10380 10378
3562.3606 10368 10352 10329 10300 10265 10225 10184 10148 10129 10135 10167
3567.6638 10214 10264 10307 10338 10359 10372 10379 10382 10381 10378 10371
3572.9670 10362 10353 10346 10341 10337 10335 10335 10336 10340 10345 10348
3578.2705 10347 10340 10330 10321 10315 10313 10315 10317 10317 10314 10308
3583.5737 10297 10282 10262 10235 10203 10168 10140 10128 10138 10171 10215
3588.8770 10260 10294 10313 10316 10306 10287 10263 10241 10224 10212 10204
3594.1802 10201 10202 10206 10212 10218 10222 10221 10216 10209 10202 10196
3599.4836 10195 10199 10208 10221 10236 10252 10266 10277 10282 10281 10273
3604.7869 10258 10237 10214 10192 10174 10164 10164 10175 10196 10222 10243
3610.0901 10254 10251 10237 10217 10196 10181 10176 10181 10192 10203 10212
3615.3933 10214 10208 10193 10169 10142 10116 10101 10100 10117 10145 10176
3620.6968 10201 10219 10229 10234 10239 10244 10248 10249 10242 10228 10208
3626.0000 10184 10153 10112 10058 9999 9961 9980 10053 10138 10203 10239 10251
3631.7854 10244 10225 10205 10195 10202 10224 10250 10271 10281 10281 10274
3637.0886 10268 10268 10275 10289 10304 10316 10323 10324 10323 10320 10321
3642.3918 10325 10331 10333 10326 10304 10265 10209 10140 10067 10006 9968
3647.6953 9954 9953 9958 9970 10000 10053 10123 10190 10244 10282 10306 10316
3653.4807 10314 10299 10271 10236 10207 10200 10220 10255 10287 10307 10315
3658.7839 10316 10315 10317 10323 10333 10343 10352 10357 10358 10353 10346
3664.0872 10337 10330 10324 10317 10304 10282 10249 10207 10160 10115 10083
3669.3904 10075 10102 10157 10220 10268 10290 10286 10255 10196 10103 9984
3674.6938 9877 9858 9943 10058 10143 10190 10209 10214 10216 10227 10249 10277
3680.4792 10303 10319 10325 10320 10310 10298 10288 10282 10278 10271 10256
3685.7825 10229 10191 10146 10103 10077 10074 10085 10093 10093 10093 10107
3691.0857 10140 10186 10229 10257 10269 10270 10264 10258 10257 10259 10264
3696.3889 10269 10270 10268 10265 10260 10253 10241 10224 10201 10179 10168
3701.6924 10176 10199 10224 10241 10246 10244 10241 10242 10249 10255 10252
3706.9956 10236 10205 10165 10125 10093 10072 10055 10038 10020 10017 10042
3712.2988 10092 10150 10198 10232 10254 10271 10282 10289 10286 10272 10249
3717.6021 10223 10203 10196 10201 10207 10204 10185 10152 10113 10084 10072
3722.9055 10074 10079 10079 10072 10065 10066 10082 10112 10148 10181 10203
3728.2087 10213 10210 10195 10169 10135 10099 10068 10048 10038 10028 10009
3733.5120 9978 9941 9910 9903 9928 9976 10029 10077 10119 10153 10178 10192
3739.2974 10200 10204 10210 10218 10224 10221 10201 10158 10090 10012 9970
3744.6006 10005 10083 10147 10183 10194 10187 10162 10123 10076 10030 9999
3749.9041 9981 9972 9972 9992 10042 10114 10185 10236 10262 10268 10263 10251
3755.6895 10242 10237 10237 10234 10224 10207 10191 10187 10203 10236 10272
3760.9927 10301 10318 10326 10326 10318 10304 10283 10260 10243 10241 10253
3766.2959 10272 10284 10282 10266 10243 10223 10218 10237 10271 10304 10325
3771.5991 10336 10339 10340 10342 10346 10352 10358 10362 10363 10359 10348
3776.9026 10329 10302 10271 10243 10226 10229 10251 10281 10311 10332 10342
3782.2058 10339 10324 10301 10276 10258 10255 10266 10288 10311 10330 10343
3787.5090 10350 10354 10356 10359 10363 10367 10370 10370 10369 10365 10361
3792.8123 10355 10345 10329 10306 10274 10239 10209 10197 10208 10233 10257
3798.1157 10268 10260 10229 10179 10116 10059 10040 10074 10141 10207 10255
3803.4189 10284 10294 10288 10267 10234 10200 10185 10201 10243 10289 10323
3808.7222 10342 10350 10351 10349 10346 10344 10342 10338 10329 10313 10286
3814.0254 10249 10204 10163 10146 10166 10210 10252 10274 10275 10255 10216
3819.3289 10159 10094 10046 10044 10094 10164 10224 10267 10294 10309 10313
3824.6321 10307 10292 10273 10258 10255 10267 10287 10307 10317 10315 10300
3829.9353 10277 10254 10242 10245 10257 10267 10268 10260 10245 10231 10221
3835.2385 10214 10204 10187 10164 10140 10122 10113 10110 10114 10128 10155
3840.5420 10192 10230 10256 10264 10259 10249 10248 10261 10286 10313 10335
3845.8452 10349 10355 10353 10347 10336 10323 10307 10286 10260 10224 10176
3851.1484 10115 10042 9970 9924 9937 10016 10114 10185 10222 10236 10241 10247
3856.9338 10261 10284 10311 10333 10343 10338 10321 10297 10273 10256 10245
3862.2371 10234 10217 10190 10160 10143 10154 10196 10248 10288 10306 10299
3867.5405 10270 10222 10161 10109 10098 10139 10201 10251 10275 10274 10253
3872.8438 10224 10204 10209 10241 10285 10324 10351 10364 10366 10358 10339
3878.1470 10307 10263 10213 10174 10163 10184 10223 10260 10285 10294 10289
3883.4502 10272 10246 10219 10201 10205 10230 10268 10302 10326 10338 10337
3888.7537 10324 10300 10266 10232 10209 10208 10227 10255 10280 10297 10308
3894.0569 10318 10327 10337 10341 10335 10316 10285 10248 10214 10195 10193
3899.3601 10202 10209 10206 10195 10182 10175 10176 10182 10186 10187 10188
3904.6633 10196 10217 10248 10282 10313 10337 10352 10359 10362 10364 10366
3909.9668 10369 10371 10372 10371 10367 10363 10359 10356 10350 10340 10324
3915.2700 10305 10288 10279 10281 10291 10300 10303 10301 10297 10298 10309
3920.5732 10325 10340 10345 10338 10320 10294 10271 10258 10262 10281 10308
3925.8765 10333 10350 10357 10352 10340 10325 10312 10302 10295 10289 10281
3931.1799 10275 10273 10278 10291 10309 10327 10343 10357 10369 10380 10388
3936.4832 10392 10392 10389 10386 10385 10385 10383 10376 10362 10341 10317
3941.7864 10298 10289 10294 10310 10332 10351 10362 10362 10352 10337 10321
3947.0896 10311 10307 10309 10312 10314 10316 10320 10327 10337 10349 10358
3952.3931 10364 10367 10366 10365 10363 10362 10361 10360 10358 10355 10353
3957.6963 10353 10356 10361 10366 10369 10367 10362 10355 10351 10351 10355
3962.9995 10361 10368 10374 10378 10381 10381 10378 10372 10366 10360 10357
3968.3027 10358 10362 10368 10373 10376 10377 10376 10375 10374 10372 10371
3973.6062 10368 10365 10362 10360 10362 10367 10373 10380 10384 10387 10389
3978.9094 10389 10389 10387 10385 10381 10377 10373 10371 10371 10374 10379
3984.2126 10383 10387 10387 10386 10384 10383 10383 10383 10381 10377 10373
3989.5159 10369 10369 10374 10381 10387 10389 10387 10381 10374 10370 10370
3994.8193 10374 10381 10387 10392 10393 10392 10390 10390 10390 10393 10395
4000.1226 10397
##END= 
