##TITLE= STDCALCIOLATTATO
##JCAMP-DX= 4.24
##DATA TYPE= INFRARED SPECTRUM
##ORIGIN= JASCO
##OWNER= 
##DATE= 22/04/28
##TIME= 11:55:39
##SPECTROMETER/DATA SYSTEM= 
##RESOLUTION= 
##DELTAX=   0.48211674
##XUNITS= 1/CM
##YUNITS= TRANSMITTANCE
##XFACTOR= 1.00000
##YFACTOR= 0.0001
##FIRSTX=   599.7532
##LASTX=  4000.1226
##NPOINTS=     7054
##FIRSTY=      0.58104
##MAXY=      1.01761
##MINY=      0.52399
##XYDATA= (X++(Y..Y))
599.7532 5810 5832 5850 5863 5871 5880 5889 5897 5904 5911 5921 5939 5965 5994
606.5029 6016 6024 6019 6011 6012 6028 6057 6087 6104 6102 6083 6060 6044 6041
613.2525 6049 6060 6064 6057 6036 6005 5965 5923 5883 5853 5839 5842 5859 5884
620.0021 5911 5934 5950 5962 5972 5984 6001 6024 6054 6089 6126 6162 6192 6211
626.7518 6220 6221 6221 6223 6230 6240 6249 6254 6260 6272 6297 6341 6399 6459
633.5014 6509 6537 6539 6518 6484 6444 6407 6376 6355 6344 6341 6343 6349 6353
640.2510 6355 6351 6342 6329 6313 6298 6286 6280 6278 6278 6277 6276 6275 6276
647.0007 6281 6290 6299 6307 6313 6321 6333 6353 6380 6411 6439 6458 6463 6452
653.7503 6428 6398 6370 6350 6344 6351 6369 6391 6412 6426 6432 6433 6436 6445
660.4999 6460 6479 6494 6498 6491 6474 6456 6443 6437 6435 6433 6427 6415 6396
667.2496 6372 6350 6335 6321 6298 6268 6237 6212 6196 6191 6193 6196 6194 6188
673.9992 6181 6180 6187 6198 6207 6206 6196 6187 6189 6204 6226 6243 6240 6214
680.7488 6174 6133 6106 6094 6093 6099 6109 6126 6154 6188 6220 6240 6242 6231
687.4985 6213 6196 6181 6165 6147 6132 6127 6142 6176 6221 6261 6281 6274 6245
694.2481 6206 6174 6161 6167 6186 6204 6209 6195 6168 6143 6137 6156 6193 6232
700.9977 6260 6269 6267 6265 6270 6285 6301 6312 6313 6313 6320 6342 6380 6427
707.7474 6472 6504 6521 6523 6513 6496 6472 6444 6417 6395 6387 6396 6418 6449
714.4970 6481 6510 6534 6556 6577 6597 6616 6631 6642 6647 6648 6644 6638 6632
721.2466 6629 6629 6635 6642 6650 6655 6656 6654 6655 6662 6679 6708 6745 6784
727.9963 6820 6848 6868 6881 6891 6905 6926 6955 6989 7025 7059 7090 7117 7145
734.7459 7176 7211 7248 7283 7313 7336 7358 7385 7423 7469 7516 7554 7577 7587
741.4955 7594 7609 7644 7704 7790 7898 8024 8159 8291 8412 8516 8607 8688 8765
748.2452 8832 8880 8902 8896 8874 8846 8819 8789 8752 8710 8675 8662 8679 8719
754.9948 8763 8791 8789 8764 8732 8706 8690 8670 8633 8577 8520 8489 8505 8577
761.7444 8693 8828 8948 9027 9064 9070 9061 9044 9018 8977 8917 8838 8739 8623
768.4941 8495 8361 8227 8099 7977 7858 7737 7613 7487 7363 7246 7136 7034 6939
775.2437 6850 6767 6691 6624 6564 6514 6474 6446 6434 6438 6462 6503 6560 6627
781.9933 6702 6779 6856 6934 7014 7097 7184 7272 7357 7434 7498 7549 7593 7634
788.7430 7680 7733 7792 7851 7903 7944 7972 7991 8006 8024 8049 8080 8113 8143
795.4926 8168 8187 8203 8219 8239 8263 8295 8331 8372 8411 8447 8476 8499 8518
802.2422 8535 8553 8571 8591 8611 8630 8646 8659 8669 8677 8685 8693 8700 8707
808.9919 8712 8715 8714 8709 8698 8681 8660 8641 8627 8621 8623 8628 8632 8634
815.7415 8634 8632 8631 8629 8627 8625 8623 8622 8623 8628 8634 8642 8648 8651
822.4911 8651 8650 8650 8653 8657 8662 8664 8662 8656 8652 8651 8657 8666 8676
829.2408 8681 8681 8678 8674 8674 8680 8690 8700 8707 8708 8705 8700 8699 8703
835.9904 8714 8729 8745 8762 8776 8786 8792 8792 8789 8784 8781 8782 8787 8796
842.7401 8806 8816 8825 8830 8832 8829 8823 8815 8807 8800 8795 8791 8786 8779
849.4897 8770 8759 8748 8736 8723 8707 8690 8670 8647 8619 8583 8539 8489 8437
856.2393 8384 8330 8274 8211 8141 8064 7990 7927 7885 7867 7870 7890 7918 7948
862.9890 7977 8004 8030 8059 8091 8127 8166 8208 8249 8287 8321 8349 8370 8386
869.7386 8397 8404 8409 8415 8421 8430 8439 8448 8458 8467 8476 8486 8496 8504
876.4882 8507 8505 8497 8484 8468 8453 8440 8429 8418 8406 8391 8376 8361 8348
883.2379 8336 8324 8310 8292 8272 8249 8225 8200 8174 8146 8116 8085 8053 8021
889.9875 7990 7956 7921 7883 7846 7811 7781 7754 7730 7708 7687 7667 7648 7629
896.7371 7608 7585 7558 7532 7510 7497 7492 7493 7497 7501 7503 7504 7507 7513
903.4868 7523 7537 7554 7575 7599 7627 7657 7691 7727 7765 7805 7847 7890 7932
910.2364 7975 8019 8065 8113 8164 8217 8270 8322 8374 8424 8474 8524 8575 8628
916.9860 8680 8732 8782 8827 8868 8905 8937 8965 8990 9012 9032 9051 9068 9084
923.7357 9096 9104 9108 9108 9105 9098 9086 9068 9043 9010 8970 8923 8868 8806
930.4853 8737 8664 8586 8507 8428 8349 8272 8200 8137 8087 8052 8035 8035 8051
937.2349 8081 8123 8174 8232 8293 8357 8421 8486 8551 8614 8673 8724 8768 8805
943.9846 8839 8870 8900 8929 8957 8985 9014 9045 9078 9110 9140 9167 9189 9207
950.7342 9222 9236 9249 9262 9278 9296 9317 9340 9363 9385 9406 9426 9443 9459
957.4838 9472 9486 9502 9521 9543 9565 9587 9605 9620 9634 9648 9663 9678 9693
964.2335 9707 9719 9730 9740 9751 9761 9771 9781 9793 9808 9825 9843 9860 9875
970.9831 9887 9895 9901 9906 9912 9920 9931 9944 9958 9972 9982 9989 9992 9993
977.7327 9993 9996 10000 10007 10013 10017 10018 10017 10016 10014 10014 10015
983.5181 10016 10019 10021 10022 10021 10016 10007 9997 9986 9977 9970 9965
989.3035 9959 9950 9939 9926 9911 9897 9887 9881 9880 9883 9886 9887 9886 9882
996.0532 9877 9871 9867 9863 9860 9859 9860 9862 9865 9867 9865 9860 9854 9847
1002.8028 9843 9841 9843 9847 9852 9857 9860 9862 9864 9866 9870 9875 9881
1009.0703 9886 9889 9890 9889 9887 9886 9885 9883 9880 9874 9868 9864 9864
1015.3378 9868 9876 9886 9894 9898 9899 9899 9900 9903 9909 9914 9919 9921
1021.6053 9920 9919 9919 9922 9928 9938 9950 9962 9974 9985 9995 10006 10016
1027.8729 10024 10024 10012 9984 9941 9887 9829 9775 9730 9697 9674 9659 9648
1034.1404 9640 9632 9624 9615 9605 9593 9580 9564 9548 9530 9509 9484 9454
1040.4080 9418 9376 9329 9280 9230 9179 9126 9072 9014 8953 8889 8825 8764
1046.6754 8710 8666 8635 8617 8613 8620 8639 8668 8705 8747 8791 8836 8882
1052.9430 8932 8989 9055 9131 9215 9301 9386 9466 9539 9603 9658 9703 9737
1059.2104 9760 9776 9786 9796 9808 9821 9836 9850 9861 9870 9877 9881 9884
1065.4780 9885 9885 9882 9876 9868 9859 9851 9846 9845 9847 9851 9853 9851
1071.7455 9845 9837 9829 9823 9820 9822 9825 9829 9832 9833 9830 9823 9813
1078.0131 9800 9788 9778 9771 9766 9761 9753 9742 9731 9720 9713 9705 9695
1084.2805 9679 9654 9621 9584 9545 9509 9475 9443 9413 9383 9352 9319 9282
1090.5481 9241 9196 9150 9103 9058 9013 8966 8916 8864 8814 8769 8733 8706
1096.8156 8684 8663 8638 8609 8577 8545 8516 8494 8477 8468 8469 8482 8507
1103.0831 8542 8585 8629 8672 8710 8744 8773 8797 8812 8818 8811 8792 8761
1109.3506 8720 8670 8613 8549 8478 8399 8308 8205 8088 7960 7821 7672 7515
1115.6182 7349 7175 6996 6818 6649 6496 6363 6250 6155 6075 6006 5944 5887
1121.8856 5837 5795 5767 5757 5769 5804 5862 5939 6033 6145 6275 6427 6601
1128.1532 6797 7011 7237 7471 7705 7936 8157 8365 8555 8725 8874 9006 9125
1134.4207 9236 9342 9445 9543 9634 9713 9782 9840 9890 9936 9981 10024 10063
1140.6882 10093 10110 10110 10095 10068 10035 10004 9979 9961 9951 9948 9951
1146.4736 9958 9966 9972 9977 9979 9981 9985 9990 9998 10007 10017 10026 10033
1152.7411 10040 10046 10050 10052 10051 10048 10045 10044 10046 10051 10058
1158.0444 10065 10070 10070 10066 10058 10048 10039 10034 10036 10042 10051
1163.3477 10058 10061 10060 10056 10052 10052 10055 10062 10069 10076 10080
1168.6510 10083 10083 10081 10078 10074 10070 10069 10071 10076 10083 10088
1173.9542 10091 10091 10088 10085 10083 10082 10083 10084 10084 10084 10085
1179.2576 10086 10088 10088 10088 10086 10084 10082 10081 10079 10077 10075
1184.5608 10072 10070 10070 10072 10074 10078 10080 10082 10082 10082 10082
1189.8641 10082 10083 10083 10083 10082 10080 10077 10074 10072 10070 10070
1195.1674 10072 10073 10074 10072 10069 10064 10059 10055 10052 10051 10050
1200.4707 10050 10050 10052 10053 10055 10055 10053 10050 10046 10040 10033
1205.7739 10025 10017 10010 10004 10000 9997 9996 9995 9995 9996 9995 9995
1211.5593 9994 9993 9991 9989 9988 9986 9984 9983 9982 9981 9981 9980 9980
1217.8269 9979 9978 9977 9975 9974 9973 9972 9970 9967 9963 9958 9954 9950
1224.0944 9949 9949 9951 9953 9957 9960 9964 9967 9970 9970 9969 9967 9964
1230.3619 9961 9959 9957 9957 9957 9957 9957 9956 9954 9951 9946 9939 9932
1236.6294 9926 9920 9915 9911 9907 9903 9899 9895 9892 9889 9887 9883 9877
1242.8970 9868 9856 9844 9831 9818 9806 9795 9784 9773 9764 9756 9749 9742
1249.1644 9736 9731 9727 9722 9719 9715 9712 9711 9713 9717 9723 9732 9744
1255.4320 9756 9768 9778 9786 9790 9788 9781 9767 9746 9718 9681 9635 9576
1261.6995 9506 9425 9335 9235 9128 9014 8900 8791 8693 8604 8514 8403 8254
1267.9670 8063 7848 7635 7446 7290 7163 7059 6969 6887 6813 6751 6707 6688
1274.2345 6701 6751 6837 6959 7108 7276 7453 7631 7802 7963 8112 8251 8379
1280.5021 8498 8609 8714 8812 8905 8993 9077 9155 9228 9297 9359 9415 9463
1286.7695 9505 9541 9571 9597 9618 9636 9650 9660 9667 9672 9677 9680 9682
1293.0371 9681 9677 9668 9655 9638 9619 9600 9582 9566 9550 9531 9509 9481
1299.3046 9448 9411 9373 9333 9293 9251 9206 9158 9105 9048 8985 8916 8839
1305.5721 8756 8665 8569 8466 8357 8242 8120 7996 7872 7754 7647 7555 7481
1311.8396 7426 7390 7371 7369 7382 7411 7456 7519 7601 7701 7815 7937 8061
1318.1072 8181 8291 8391 8479 8556 8623 8683 8737 8787 8833 8875 8913 8947
1324.3746 8977 9006 9033 9060 9086 9111 9133 9152 9166 9178 9187 9196 9205
1330.6422 9212 9219 9224 9227 9229 9228 9226 9221 9214 9206 9199 9194 9190
1336.9097 9187 9182 9174 9162 9148 9134 9123 9115 9110 9104 9096 9086 9074
1343.1772 9061 9047 9033 9019 9005 8990 8974 8958 8941 8923 8906 8889 8871
1349.4447 8854 8836 8816 8794 8768 8740 8708 8675 8641 8603 8563 8519 8472
1355.7123 8423 8368 8308 8239 8162 8077 7989 7901 7820 7748 7689 7645 7618
1361.9797 7610 7622 7651 7694 7741 7788 7828 7859 7882 7894 7898 7898 7899
1368.2473 7903 7912 7922 7929 7929 7920 7904 7884 7864 7846 7834 7829 7832
1374.5148 7838 7843 7844 7839 7828 7812 7790 7763 7732 7697 7661 7622 7581
1380.7823 7537 7493 7448 7404 7360 7315 7269 7222 7177 7133 7091 7051 7010
1387.0498 6969 6930 6895 6863 6834 6804 6774 6743 6713 6687 6664 6645 6629
1393.3174 6616 6606 6599 6596 6596 6597 6596 6596 6595 6596 6600 6609 6621
1399.5848 6634 6646 6657 6668 6680 6694 6709 6724 6741 6762 6789 6821 6856
1405.8524 6889 6916 6940 6961 6982 7003 7025 7048 7071 7095 7119 7144 7170
1412.1199 7195 7219 7241 7261 7280 7298 7317 7338 7360 7380 7399 7415 7430
1418.3875 7446 7467 7490 7510 7523 7532 7538 7544 7550 7556 7561 7564 7563
1424.6549 7560 7558 7559 7564 7573 7587 7603 7622 7644 7672 7707 7750 7796
1430.9225 7842 7885 7926 7968 8010 8049 8082 8108 8129 8147 8167 8194 8225
1437.1899 8256 8283 8306 8329 8352 8375 8397 8415 8430 8442 8452 8460 8468
1443.4575 8477 8486 8496 8506 8516 8525 8532 8538 8542 8547 8554 8562 8570
1449.7250 8578 8586 8593 8600 8605 8608 8609 8607 8603 8597 8590 8583 8576
1455.9926 8571 8567 8559 8545 8528 8511 8497 8486 8479 8474 8470 8466 8461
1462.2600 8454 8446 8435 8417 8390 8353 8313 8278 8249 8223 8196 8165 8129
1468.5276 8092 8054 8018 7985 7954 7925 7895 7863 7831 7803 7783 7768 7755
1474.7950 7739 7716 7687 7653 7621 7596 7577 7563 7549 7535 7520 7506 7494
1481.0626 7487 7484 7486 7493 7504 7520 7541 7566 7593 7622 7653 7689 7728
1487.3301 7766 7799 7825 7847 7872 7904 7942 7980 8011 8038 8062 8086 8109
1493.5977 8130 8148 8164 8180 8200 8223 8246 8265 8278 8287 8296 8305 8313
1499.8651 8321 8326 8331 8336 8340 8344 8347 8348 8349 8349 8349 8349 8349
1506.1327 8347 8342 8336 8331 8324 8315 8304 8292 8280 8268 8255 8243 8230
1512.4001 8217 8204 8192 8179 8167 8155 8144 8134 8123 8107 8087 8067 8048
1518.6677 8031 8016 8003 7991 7980 7967 7950 7928 7905 7884 7863 7843 7823
1524.9352 7802 7782 7764 7747 7729 7709 7686 7662 7637 7614 7592 7570 7547
1531.2028 7524 7502 7481 7458 7433 7406 7378 7353 7328 7303 7277 7251 7225
1537.4702 7201 7178 7152 7118 7077 7041 7016 6992 6962 6926 6887 6852 6823
1543.7378 6797 6769 6737 6700 6663 6628 6595 6563 6530 6495 6459 6422 6385
1550.0052 6348 6311 6275 6242 6211 6181 6149 6112 6068 6020 5976 5940 5909
1556.2728 5880 5850 5816 5780 5747 5722 5694 5654 5609 5570 5536 5507 5480
1562.5403 5453 5426 5399 5373 5349 5328 5311 5296 5282 5270 5258 5248 5241
1568.8079 5240 5247 5259 5270 5275 5276 5276 5277 5278 5280 5282 5285 5292
1575.0753 5309 5346 5402 5458 5498 5524 5544 5567 5596 5629 5667 5708 5752
1581.3429 5798 5847 5898 5951 6004 6057 6110 6161 6210 6258 6303 6347 6388
1587.6105 6428 6467 6505 6545 6585 6627 6669 6709 6749 6787 6824 6862 6903
1593.8779 6945 6988 7030 7069 7106 7142 7179 7217 7257 7297 7335 7371 7406
1600.1455 7439 7472 7506 7541 7578 7616 7656 7694 7729 7760 7790 7818 7848
1606.4130 7879 7910 7942 7974 8005 8037 8071 8104 8136 8167 8196 8225 8254
1612.6805 8284 8315 8344 8370 8393 8415 8440 8471 8510 8549 8580 8603 8623
1618.9480 8643 8665 8688 8710 8729 8745 8759 8774 8794 8821 8853 8885 8913
1625.2156 8936 8956 8974 8991 9007 9023 9040 9057 9075 9093 9110 9128 9147
1631.4830 9164 9181 9196 9209 9221 9231 9241 9250 9258 9268 9278 9288 9298
1637.7506 9308 9316 9325 9333 9343 9353 9363 9373 9382 9390 9399 9409 9419
1644.0181 9430 9440 9449 9456 9461 9465 9467 9470 9474 9478 9483 9488 9493
1650.2856 9497 9500 9502 9503 9501 9493 9479 9471 9468 9468 9468 9468 9467
1656.5531 9466 9464 9463 9462 9462 9462 9462 9462 9461 9460 9458 9457 9455
1662.8207 9455 9455 9455 9454 9452 9451 9449 9447 9447 9447 9447 9447 9448
1669.0881 9448 9449 9450 9450 9449 9448 9448 9448 9449 9449 9449 9449 9449
1675.3557 9450 9453 9456 9458 9460 9462 9464 9467 9471 9475 9480 9483 9486
1681.6232 9487 9487 9488 9490 9497 9509 9519 9522 9521 9519 9516 9513 9509
1687.8907 9507 9506 9509 9514 9522 9529 9534 9537 9538 9538 9539 9540 9542
1694.1582 9545 9548 9551 9556 9561 9567 9572 9577 9580 9583 9585 9584 9583
1700.4258 9584 9591 9599 9608 9616 9625 9633 9641 9647 9650 9649 9646 9644
1706.6932 9645 9648 9654 9659 9664 9668 9670 9671 9673 9675 9679 9682 9685
1712.9608 9685 9685 9683 9682 9685 9690 9698 9706 9713 9720 9724 9725 9724
1719.2283 9722 9721 9720 9720 9720 9721 9722 9724 9726 9728 9730 9731 9734
1725.4958 9736 9739 9743 9746 9749 9750 9749 9747 9742 9739 9738 9739 9742
1731.7633 9746 9749 9751 9751 9753 9756 9760 9763 9765 9764 9763 9761 9759
1738.0309 9757 9756 9756 9758 9761 9763 9763 9761 9759 9756 9754 9754 9757
1744.2983 9761 9768 9774 9780 9785 9788 9789 9786 9781 9776 9772 9769 9767
1750.5659 9766 9767 9770 9774 9779 9784 9789 9794 9798 9803 9808 9814 9819
1756.8334 9824 9825 9825 9824 9822 9820 9818 9817 9818 9819 9823 9826 9829
1763.1010 9830 9829 9828 9828 9829 9832 9835 9839 9841 9843 9843 9843 9843
1769.3684 9842 9840 9836 9831 9826 9825 9830 9837 9844 9848 9850 9851 9852
1775.6360 9851 9850 9849 9847 9845 9846 9849 9853 9858 9862 9865 9866 9866
1781.9034 9866 9866 9865 9863 9860 9858 9857 9858 9860 9864 9868 9872 9876
1788.1710 9879 9881 9883 9883 9884 9885 9887 9890 9892 9892 9891 9890 9889
1794.4385 9889 9891 9895 9899 9901 9902 9901 9900 9899 9900 9903 9908 9915
1800.7061 9920 9923 9925 9924 9923 9922 9921 9920 9921 9922 9923 9926 9929
1806.9735 9931 9933 9933 9933 9932 9931 9929 9926 9922 9918 9917 9919 9923
1813.2411 9927 9931 9933 9933 9933 9934 9938 9943 9948 9951 9951 9948 9945
1819.5085 9941 9939 9939 9939 9940 9940 9939 9937 9936 9938 9943 9952 9961
1825.7761 9967 9970 9969 9966 9962 9958 9955 9952 9950 9949 9947 9944 9939
1832.0436 9934 9929 9928 9931 9937 9946 9955 9963 9968 9972 9973 9971 9967
1838.3112 9962 9956 9952 9949 9948 9949 9952 9957 9963 9967 9968 9964 9958
1844.5786 9955 9957 9963 9968 9973 9976 9979 9983 9988 9991 9990 9984 9977
1850.8462 9971 9969 9972 9977 9982 9984 9985 9986 9989 9993 9995 9995 9992
1857.1136 9987 9983 9982 9985 9990 9995 9998 9998 9994 9989 9984 9980 9978
1863.3812 9980 9983 9985 9984 9981 9978 9977 9984 9998 10016 10034 10044 10044
1869.6487 10038 10031 10026 10025 10027 10031 10036 10039 10041 10040 10036
1874.9520 10029 10022 10016 10012 10010 10010 10009 10007 10004 10002 10005
1880.2552 10012 10024 10039 10052 10059 10059 10052 10040 10027 10016 10010
1885.5586 10011 10019 10032 10047 10059 10065 10063 10053 10037 10020 10005
1890.8618 9993 9986 9984 9990 10002 10018 10034 10044 10045 10039 10032 10028
1896.6472 10030 10036 10044 10049 10048 10042 10031 10020 10013 10013 10021
1901.9506 10035 10048 10059 10064 10064 10062 10060 10059 10057 10053 10046
1907.2538 10037 10030 10027 10030 10039 10050 10061 10066 10063 10055 10042
1912.5571 10030 10020 10014 10010 10005 10000 9994 9990 9993 10003 10021 10041
1918.3425 10056 10061 10058 10050 10040 10031 10026 10026 10030 10036 10042
1923.6458 10046 10046 10045 10044 10044 10048 10054 10061 10067 10070 10067
1928.9491 10059 10048 10037 10028 10024 10026 10033 10042 10052 10063 10073
1934.2523 10082 10086 10087 10084 10080 10075 10070 10064 10053 10038 10021
1939.5557 10003 9987 9975 9966 9963 9968 9983 10007 10034 10058 10074 10082
1945.3411 10082 10076 10066 10054 10044 10036 10032 10028 10021 10004 9978
1950.6443 9947 9919 9905 9912 9938 9977 10019 10051 10068 10067 10052 10030
1956.4297 10008 9993 9989 9998 10017 10042 10063 10074 10069 10047 10015 9986
1962.2151 9974 9989 10029 10081 10125 10150 10152 10143 10136 10143 10160
1967.5184 10175 10172 10146 10099 10042 9985 9934 9890 9856 9834 9830 9847
1973.3038 9883 9931 9978 10012 10024 10016 9997 9978 9966 9960 9956 9945 9927
1979.5713 9906 9893 9897 9923 9968 10024 10077 10116 10137 10137 10119 10088
1985.3567 10048 10004 9964 9938 9934 9951 9982 10013 10031 10033 10023 10012
1991.1421 10008 10018 10038 10065 10090 10108 10116 10109 10088 10055 10016
1996.4454 9979 9948 9928 9921 9930 9951 9977 9997 10003 9995 9985 9990 10020
2002.7129 10068 10114 10135 10118 10071 10012 9960 9926 9912 9914 9932 9961
2008.4983 9994 10017 10020 10005 9985 9978 9992 10019 10040 10040 10013 9968
2014.2837 9922 9887 9871 9880 9913 9967 10030 10084 10110 10104 10073 10033
2020.0691 10001 9985 9985 9991 9995 9988 9971 9946 9922 9911 9923 9962 10021
2026.3367 10083 10127 10136 10106 10043 9966 9894 9844 9828 9846 9890 9943
2032.1221 9987 10008 10002 9981 9959 9953 9969 10001 10040 10072 10089 10091
2037.9075 10081 10067 10052 10041 10031 10021 10008 9993 9982 9979 9987 10003
2043.6929 10021 10034 10037 10031 10018 10005 9993 9984 9978 9975 9975 9976
2049.4783 9976 9977 9981 9987 9997 10008 10016 10019 10018 10012 10001 9987
2055.2637 9970 9957 9954 9965 9988 10015 10035 10038 10024 9996 9963 9934 9914
2061.5313 9908 9915 9932 9953 9970 9975 9969 9957 9947 9948 9961 9980 9997
2067.7986 10008 10011 10009 10008 10012 10021 10032 10040 10040 10030 10012
2073.1021 9994 9982 9983 9998 10021 10044 10058 10055 10039 10014 9988 9967
2078.8875 9950 9938 9930 9929 9936 9953 9976 9999 10015 10022 10020 10011
2084.6729 10000 9989 9979 9974 9973 9978 9986 9992 9993 9988 9978 9968 9963
2090.9402 9965 9972 9981 9989 9993 9993 9991 9988 9988 9990 9995 10002 10009
2097.2078 10016 10021 10025 10026 10025 10022 10019 10017 10015 10013 10008
2102.5110 9999 9985 9966 9947 9932 9924 9927 9939 9958 9981 10000 10013 10016
2108.7786 10010 9998 9985 9976 9974 9978 9985 9989 9986 9974 9958 9943 9936
2115.0461 9936 9943 9950 9953 9952 9950 9951 9956 9962 9966 9965 9960 9955
2121.3137 9950 9949 9948 9945 9941 9938 9939 9943 9949 9950 9947 9941 9938
2127.5811 9942 9953 9968 9981 9984 9978 9964 9949 9939 9939 9949 9965 9982
2133.8486 9994 10001 10005 10011 10020 10028 10028 10009 9971 9918 9861 9814
2139.6340 9787 9785 9806 9844 9889 9932 9969 9999 10025 10054 10083 10107
2145.4194 10115 10100 10060 10004 9948 9905 9884 9887 9909 9941 9971 9992 9996
2151.6870 9983 9962 9942 9933 9939 9956 9978 9996 10012 10030 10059 10099
2157.4724 10139 10159 10141 10080 9994 9909 9850 9824 9826 9841 9856 9863 9858
2163.7400 9846 9832 9825 9828 9841 9855 9859 9848 9820 9786 9757 9745 9758
2170.0073 9794 9849 9915 9980 10034 10063 10060 10027 9977 9925 9890 9882 9897
2176.2749 9926 9953 9967 9963 9944 9919 9895 9878 9869 9864 9862 9863 9868
2182.5425 9880 9896 9914 9932 9951 9971 9990 10002 9999 9975 9934 9886 9849
2188.8101 9833 9841 9865 9893 9916 9932 9943 9953 9963 9970 9971 9967 9958
2195.0774 9948 9936 9922 9903 9881 9862 9856 9866 9890 9917 9934 9934 9920
2201.3450 9901 9893 9902 9927 9960 9990 10013 10028 10036 10042 10046 10045
2207.1304 10040 10028 10010 9984 9952 9917 9886 9867 9865 9881 9908 9938 9962
2213.3979 9979 9989 9994 9993 9986 9972 9951 9929 9911 9901 9897 9896 9895
2219.6655 9890 9882 9876 9875 9881 9895 9912 9927 9937 9940 9940 9938 9939
2225.9329 9942 9946 9946 9939 9923 9902 9884 9875 9881 9901 9928 9953 9969
2232.2004 9973 9968 9960 9955 9956 9964 9978 9996 10013 10028 10034 10027
2237.9858 10009 9984 9961 9947 9947 9958 9971 9978 9974 9961 9945 9935 9939
2244.2534 9954 9975 9992 10000 9995 9981 9962 9946 9937 9936 9939 9944 9947
2250.5210 9946 9943 9937 9932 9928 9925 9923 9922 9921 9921 9923 9927 9934
2256.7883 9942 9950 9956 9959 9959 9954 9946 9935 9924 9914 9909 9910 9916
2263.0559 9925 9932 9934 9931 9926 9920 9915 9908 9900 9890 9882 9880 9885
2269.3235 9896 9906 9909 9904 9892 9878 9865 9857 9854 9855 9862 9872 9884
2275.5911 9895 9901 9902 9898 9892 9887 9884 9884 9884 9883 9882 9882 9883
2281.8584 9886 9888 9890 9890 9888 9884 9879 9875 9870 9866 9863 9859 9857
2288.1260 9856 9859 9863 9869 9874 9878 9879 9879 9880 9882 9887 9893 9899
2294.3936 9904 9907 9909 9908 9907 9904 9900 9898 9898 9902 9909 9917 9923
2300.6611 9924 9920 9910 9899 9889 9882 9880 9882 9884 9886 9888 9891 9894
2306.9285 9898 9903 9909 9915 9920 9925 9930 9932 9933 9932 9928 9924 9920
2313.1960 9917 9915 9914 9915 9916 9918 9921 9923 9922 9918 9911 9904 9899
2319.4636 9900 9905 9913 9920 9923 9923 9923 9925 9931 9937 9941 9941 9936
2325.7312 9929 9923 9918 9916 9917 9920 9928 9939 9954 9966 9973 9969 9957
2331.9985 9942 9931 9928 9930 9934 9936 9932 9925 9917 9913 9917 9928 9945
2338.2661 9962 9978 9988 9993 9994 9993 9993 9994 9995 9994 9988 9979 9971
2344.5337 9964 9960 9954 9946 9936 9926 9919 9917 9919 9923 9926 9927 9925
2350.8013 9923 9924 9932 9946 9964 9980 9995 10009 10025 10043 10057 10059
2356.5867 10044 10016 9985 9964 9959 9967 9977 9979 9971 9957 9948 9952 9973
2362.8540 10006 10042 10067 10072 10053 10013 9962 9912 9876 9861 9865 9883
2368.6394 9906 9926 9938 9942 9940 9937 9937 9940 9946 9950 9949 9943 9933
2374.9070 9922 9912 9904 9900 9897 9895 9893 9891 9890 9890 9891 9894 9897
2381.1746 9899 9898 9896 9892 9888 9885 9881 9878 9875 9874 9876 9881 9887
2387.4421 9892 9895 9894 9890 9886 9884 9885 9888 9890 9890 9888 9883 9879
2393.7095 9875 9874 9875 9878 9884 9889 9893 9894 9891 9885 9878 9873 9873
2399.9771 9877 9882 9886 9887 9885 9883 9883 9885 9889 9892 9892 9890 9888
2406.2446 9886 9885 9885 9883 9879 9874 9870 9867 9869 9873 9879 9885 9888
2412.5122 9889 9887 9883 9878 9874 9871 9870 9871 9872 9872 9872 9870 9868
2418.7795 9867 9868 9871 9876 9881 9884 9886 9885 9886 9887 9891 9894 9894
2425.0471 9891 9885 9878 9873 9869 9867 9866 9864 9862 9862 9863 9866 9867
2431.3147 9867 9863 9856 9850 9846 9845 9849 9855 9864 9872 9879 9883 9884
2437.5823 9881 9875 9867 9859 9853 9852 9855 9862 9868 9871 9871 9868 9864
2443.8496 9862 9862 9864 9866 9865 9860 9852 9844 9837 9835 9839 9847 9858
2450.1172 9868 9874 9877 9876 9873 9868 9865 9863 9864 9868 9873 9879 9883
2456.3848 9885 9885 9882 9879 9876 9873 9869 9865 9861 9859 9859 9861 9866
2462.6523 9871 9875 9875 9872 9868 9865 9865 9868 9872 9875 9874 9870 9864
2468.9197 9859 9857 9858 9860 9861 9862 9864 9866 9869 9872 9872 9868 9862
2475.1873 9857 9853 9852 9853 9855 9857 9858 9858 9859 9861 9863 9866 9866
2481.4548 9863 9856 9848 9840 9836 9835 9838 9843 9848 9853 9858 9864 9871
2487.7224 9876 9879 9878 9873 9867 9860 9854 9849 9846 9845 9846 9848 9849
2493.9897 9848 9845 9840 9836 9834 9837 9842 9847 9849 9847 9842 9834 9828
2500.2573 9825 9824 9825 9826 9826 9826 9827 9828 9832 9837 9843 9847 9849
2506.5249 9847 9842 9837 9831 9826 9822 9819 9817 9818 9821 9826 9829 9830
2512.7925 9828 9824 9819 9818 9820 9825 9830 9832 9831 9825 9816 9806 9795
2519.0598 9787 9781 9780 9784 9791 9798 9804 9807 9808 9807 9805 9801 9795
2525.3274 9787 9779 9773 9770 9771 9774 9776 9776 9774 9772 9770 9770 9770
2531.5950 9771 9772 9771 9768 9763 9757 9749 9741 9735 9732 9732 9735 9739
2537.8625 9744 9750 9757 9765 9771 9774 9774 9772 9769 9767 9769 9772 9776
2544.1299 9778 9779 9778 9775 9773 9772 9772 9774 9776 9779 9781 9783 9785
2550.3975 9789 9796 9805 9813 9819 9820 9818 9813 9806 9798 9789 9781 9774
2556.6650 9770 9771 9774 9780 9785 9788 9790 9790 9790 9790 9791 9793 9796
2562.9326 9800 9803 9804 9800 9793 9785 9778 9776 9777 9782 9786 9786 9783
2569.2000 9777 9771 9765 9763 9764 9768 9772 9776 9778 9778 9776 9774 9773
2575.4675 9774 9777 9781 9786 9790 9793 9794 9791 9786 9779 9771 9763 9757
2581.7351 9752 9748 9744 9740 9736 9732 9730 9731 9733 9737 9741 9745 9746
2588.0027 9746 9744 9741 9740 9741 9743 9746 9746 9745 9741 9736 9729 9723
2594.2703 9717 9712 9709 9708 9708 9707 9706 9704 9703 9703 9705 9706 9707
2600.5376 9708 9707 9707 9707 9707 9706 9703 9700 9696 9693 9689 9686 9681
2606.8052 9677 9674 9673 9673 9675 9677 9678 9677 9674 9670 9666 9662 9660
2613.0728 9660 9661 9662 9663 9663 9661 9658 9655 9653 9653 9655 9658 9662
2619.3403 9665 9667 9667 9667 9668 9668 9668 9668 9667 9664 9658 9653 9648
2625.6077 9644 9643 9643 9642 9641 9637 9632 9628 9624 9623 9623 9623 9623
2631.8752 9621 9618 9613 9608 9603 9599 9597 9597 9598 9599 9599 9597 9592
2638.1428 9587 9582 9578 9576 9576 9576 9575 9572 9567 9561 9555 9551 9548
2644.4104 9546 9544 9541 9536 9530 9525 9520 9517 9514 9511 9507 9502 9497
2650.6777 9492 9488 9484 9480 9475 9470 9464 9460 9457 9455 9453 9451 9448
2656.9453 9446 9444 9442 9441 9440 9438 9435 9432 9428 9426 9426 9427 9427
2663.2129 9427 9425 9423 9421 9420 9421 9423 9425 9427 9427 9427 9428 9429
2669.4805 9430 9432 9433 9434 9434 9433 9431 9429 9428 9427 9428 9431 9435
2675.7478 9440 9443 9445 9445 9444 9442 9441 9441 9441 9443 9445 9447 9449
2682.0154 9449 9448 9445 9441 9438 9437 9437 9439 9440 9440 9439 9437 9435
2688.2830 9434 9433 9433 9432 9431 9429 9427 9425 9424 9422 9421 9418 9414
2694.5505 9410 9404 9399 9394 9391 9388 9387 9385 9383 9380 9377 9375 9374
2700.8179 9373 9371 9368 9364 9359 9354 9349 9345 9342 9340 9338 9337 9336
2707.0854 9336 9336 9335 9335 9334 9333 9331 9329 9327 9324 9323 9323 9324
2713.3530 9325 9327 9328 9328 9328 9328 9328 9328 9328 9328 9326 9323 9319
2719.6206 9314 9309 9305 9302 9300 9300 9300 9300 9300 9299 9297 9294 9289
2725.8879 9283 9278 9273 9270 9267 9264 9260 9257 9252 9246 9240 9233 9226
2732.1555 9218 9212 9207 9204 9201 9198 9194 9189 9183 9176 9170 9165 9161
2738.4231 9156 9151 9145 9138 9131 9124 9116 9109 9103 9097 9093 9091 9090
2744.6907 9089 9088 9087 9085 9083 9081 9079 9076 9073 9068 9063 9058 9055
2750.9580 9054 9054 9054 9055 9055 9055 9054 9053 9053 9053 9056 9059 9062
2757.2256 9065 9068 9070 9070 9070 9069 9067 9065 9062 9060 9059 9059 9059
2763.4932 9060 9061 9062 9062 9061 9059 9055 9051 9047 9044 9043 9045 9048
2769.7607 9053 9057 9061 9062 9062 9059 9055 9050 9045 9041 9039 9038 9037
2776.0281 9035 9032 9027 9022 9017 9014 9013 9015 9017 9018 9018 9015 9010
2782.2957 9005 9002 9000 9000 9000 8999 8998 8995 8992 8989 8985 8981 8976
2788.5632 8971 8966 8961 8958 8954 8950 8946 8943 8940 8938 8935 8932 8928
2794.8308 8925 8924 8924 8924 8924 8922 8918 8914 8909 8905 8901 8897 8894
2801.0981 8891 8888 8886 8884 8881 8879 8876 8872 8868 8864 8861 8860 8859
2807.3657 8858 8856 8852 8847 8841 8836 8831 8828 8825 8823 8822 8822 8823
2813.6333 8823 8823 8820 8816 8810 8803 8798 8795 8793 8792 8793 8793 8792
2819.9009 8789 8785 8779 8772 8767 8764 8763 8763 8763 8761 8758 8752 8747
2826.1682 8742 8737 8733 8729 8725 8721 8717 8714 8712 8711 8709 8705 8699
2832.4358 8691 8683 8676 8671 8667 8665 8663 8660 8655 8647 8637 8628 8620
2838.7034 8614 8610 8607 8605 8602 8598 8594 8589 8584 8577 8569 8559 8548
2844.9709 8537 8527 8519 8512 8507 8502 8497 8490 8483 8477 8472 8469 8466
2851.2383 8462 8456 8447 8438 8430 8423 8418 8413 8408 8403 8399 8398 8399
2857.5059 8403 8407 8410 8410 8409 8406 8404 8403 8403 8406 8409 8413 8417
2863.7734 8420 8422 8422 8422 8422 8421 8420 8420 8420 8420 8420 8419 8417
2870.0410 8415 8413 8411 8412 8414 8417 8421 8423 8424 8421 8416 8410 8404
2876.3083 8399 8397 8396 8397 8398 8397 8394 8389 8384 8379 8375 8373 8372
2882.5759 8372 8371 8370 8368 8365 8360 8354 8348 8342 8338 8336 8337 8339
2888.8435 8342 8343 8343 8342 8341 8340 8341 8342 8342 8341 8338 8334 8329
2895.1111 8324 8323 8324 8327 8331 8334 8334 8331 8326 8321 8316 8312 8310
2901.3784 8308 8307 8304 8300 8295 8289 8283 8278 8272 8267 8261 8255 8250
2907.6460 8246 8243 8240 8236 8231 8227 8222 8220 8219 8219 8219 8217 8211
2913.9136 8204 8196 8187 8180 8173 8167 8162 8157 8154 8152 8150 8147 8144
2920.1812 8140 8136 8131 8126 8122 8119 8116 8114 8110 8106 8102 8098 8094
2926.4485 8089 8084 8079 8075 8072 8070 8070 8069 8068 8066 8063 8060 8058
2932.7161 8055 8053 8050 8047 8043 8039 8037 8037 8040 8045 8050 8053 8054
2938.9836 8052 8049 8046 8043 8042 8043 8044 8047 8051 8055 8057 8058 8058
2945.2512 8058 8058 8059 8060 8062 8063 8063 8063 8062 8061 8059 8057 8056
2951.5186 8057 8058 8061 8063 8065 8065 8064 8062 8061 8062 8064 8067 8070
2957.7861 8072 8071 8069 8067 8064 8063 8062 8061 8060 8059 8059 8060 8063
2964.0537 8067 8071 8073 8073 8072 8071 8070 8071 8073 8075 8074 8070 8064
2970.3213 8057 8051 8048 8047 8047 8046 8042 8036 8029 8023 8017 8012 8008
2976.5886 8003 7998 7994 7992 7994 7999 8008 8018 8027 8034 8038 8042 8045
2982.8562 8050 8057 8063 8069 8074 8080 8087 8097 8107 8118 8128 8135 8140
2989.1238 8141 8140 8139 8138 8139 8142 8147 8152 8157 8161 8166 8171 8176
2995.3914 8183 8189 8195 8201 8208 8215 8222 8231 8240 8248 8256 8262 8268
3001.6587 8272 8277 8281 8287 8292 8298 8303 8308 8314 8319 8325 8330 8335
3007.9263 8339 8342 8346 8348 8349 8350 8349 8347 8345 8344 8343 8344 8345
3014.1938 8346 8346 8346 8344 8342 8340 8337 8334 8330 8326 8323 8323 8325
3020.4614 8329 8334 8336 8335 8332 8328 8325 8325 8327 8331 8333 8333 8331
3026.7288 8327 8323 8319 8317 8314 8311 8309 8308 8308 8309 8310 8311 8309
3032.9963 8306 8303 8300 8297 8295 8293 8291 8289 8286 8282 8278 8273 8270
3039.2639 8268 8268 8270 8272 8274 8275 8274 8271 8266 8259 8252 8246 8240
3045.5315 8237 8235 8234 8233 8232 8231 8231 8230 8229 8227 8224 8221 8218
3051.7988 8215 8212 8207 8203 8199 8195 8193 8191 8189 8188 8186 8184 8182
3058.0664 8181 8180 8179 8178 8177 8176 8175 8173 8171 8168 8165 8161 8158
3064.3340 8155 8151 8147 8142 8137 8133 8130 8129 8126 8121 8115 8108 8102
3070.6016 8100 8102 8106 8111 8113 8113 8108 8101 8093 8086 8082 8080 8079
3076.8689 8079 8077 8074 8069 8064 8060 8057 8056 8056 8055 8054 8050 8046
3083.1365 8040 8036 8032 8030 8029 8028 8026 8024 8022 8018 8015 8010 8005
3089.4041 7999 7994 7990 7987 7986 7984 7982 7979 7975 7970 7965 7961 7959
3095.6716 7957 7956 7954 7953 7951 7950 7949 7948 7946 7944 7941 7937 7932
3101.9390 7927 7921 7916 7913 7913 7914 7915 7915 7911 7905 7898 7892 7887
3108.2065 7883 7880 7878 7877 7876 7877 7878 7879 7880 7879 7877 7872 7867
3114.4741 7861 7856 7853 7853 7855 7858 7860 7860 7858 7853 7847 7840 7834
3120.7417 7830 7828 7829 7831 7833 7834 7834 7834 7834 7834 7834 7834 7836
3127.0090 7838 7840 7841 7840 7837 7831 7825 7821 7819 7820 7824 7829 7834
3133.2766 7839 7843 7846 7848 7849 7849 7850 7851 7852 7852 7849 7845 7840
3139.5442 7836 7834 7836 7842 7850 7858 7864 7867 7865 7862 7858 7855 7856
3145.8118 7859 7864 7870 7875 7878 7880 7881 7882 7882 7882 7881 7880 7879
3152.0791 7879 7882 7888 7895 7902 7907 7910 7913 7915 7917 7918 7918 7919
3158.3467 7921 7925 7931 7935 7938 7939 7938 7939 7941 7945 7949 7953 7956
3164.6143 7957 7957 7957 7957 7958 7961 7966 7972 7976 7978 7976 7973 7970
3170.8818 7969 7973 7980 7990 8000 8008 8013 8015 8014 8012 8013 8015 8019
3177.1492 8024 8027 8027 8026 8023 8022 8023 8024 8027 8030 8033 8036 8040
3183.4167 8044 8048 8051 8054 8056 8058 8059 8059 8057 8055 8052 8052 8053
3189.6843 8056 8060 8063 8064 8063 8061 8059 8058 8059 8063 8069 8074 8079
3195.9519 8082 8084 8086 8090 8095 8100 8104 8104 8102 8100 8099 8100 8102
3202.2192 8106 8110 8114 8117 8120 8122 8124 8124 8125 8124 8123 8122 8121
3208.4868 8120 8120 8121 8124 8127 8132 8137 8141 8145 8147 8148 8147 8146
3214.7544 8146 8149 8154 8162 8170 8176 8178 8176 8171 8165 8161 8159 8159
3221.0220 8160 8161 8162 8163 8164 8166 8168 8171 8175 8179 8185 8190 8195
3227.2893 8198 8199 8200 8201 8204 8207 8209 8209 8207 8201 8196 8193 8195
3233.5569 8201 8212 8222 8230 8235 8235 8233 8232 8233 8237 8241 8244 8246
3239.8245 8245 8242 8237 8232 8229 8226 8226 8227 8229 8232 8234 8236 8239
3246.0920 8243 8248 8253 8259 8265 8270 8273 8274 8274 8273 8273 8274 8277
3252.3594 8282 8285 8288 8288 8288 8286 8285 8285 8286 8287 8289 8291 8294
3258.6270 8297 8300 8302 8304 8307 8310 8315 8320 8325 8328 8330 8329 8326
3264.8945 8324 8322 8321 8320 8318 8316 8315 8317 8321 8328 8336 8344 8349
3271.1621 8352 8352 8352 8352 8353 8355 8357 8360 8362 8364 8365 8367 8369
3277.4294 8370 8372 8375 8379 8384 8390 8395 8398 8397 8394 8390 8387 8387
3283.6970 8390 8394 8398 8401 8401 8401 8401 8402 8405 8407 8408 8408 8408
3289.9646 8409 8412 8417 8423 8430 8437 8441 8443 8443 8442 8440 8439 8438
3296.2322 8439 8442 8446 8450 8454 8457 8456 8454 8450 8447 8445 8445 8447
3302.4995 8452 8458 8464 8470 8474 8476 8476 8475 8473 8471 8470 8470 8472
3308.7671 8476 8481 8485 8487 8487 8486 8485 8484 8484 8485 8486 8488 8489
3315.0347 8489 8489 8489 8488 8490 8494 8502 8511 8519 8525 8527 8528 8528
3321.3022 8529 8531 8532 8532 8530 8527 8525 8524 8525 8528 8532 8537 8542
3327.5696 8545 8546 8545 8542 8538 8537 8539 8543 8548 8552 8553 8551 8549
3333.8372 8548 8550 8556 8563 8571 8576 8578 8578 8578 8579 8582 8586 8591
3340.1047 8594 8597 8597 8597 8598 8600 8604 8608 8612 8613 8612 8610 8608
3346.3723 8607 8607 8610 8613 8617 8621 8625 8630 8637 8644 8652 8659 8663
3352.6396 8665 8665 8663 8660 8658 8656 8654 8654 8657 8661 8666 8672 8678
3358.9072 8681 8684 8685 8685 8686 8688 8691 8696 8701 8707 8713 8719 8724
3365.1748 8728 8732 8737 8742 8747 8751 8754 8755 8755 8754 8755 8757 8761
3371.4424 8766 8770 8773 8773 8773 8772 8773 8776 8781 8787 8794 8802 8811
3377.7097 8822 8833 8842 8846 8846 8841 8835 8831 8829 8829 8832 8835 8839
3383.9773 8844 8851 8860 8869 8877 8883 8885 8884 8882 8881 8881 8884 8888
3390.2449 8894 8900 8905 8909 8911 8914 8919 8927 8935 8942 8946 8946 8943
3396.5125 8937 8932 8930 8933 8940 8949 8959 8968 8975 8979 8982 8984 8986
3402.7798 8988 8991 8995 8999 9003 9006 9010 9013 9017 9023 9030 9035 9040
3409.0474 9042 9044 9047 9050 9054 9057 9058 9057 9057 9057 9061 9068 9079
3415.3149 9091 9102 9109 9110 9107 9101 9096 9096 9101 9110 9120 9127 9131
3421.5825 9131 9129 9128 9128 9130 9136 9142 9148 9152 9155 9157 9159 9163
3427.8499 9167 9171 9173 9175 9177 9180 9185 9189 9192 9192 9188 9183 9177
3434.1174 9174 9175 9181 9189 9198 9206 9213 9219 9223 9226 9228 9229 9229
3440.3850 9230 9231 9233 9235 9237 9239 9241 9244 9248 9251 9252 9251 9249
3446.6526 9248 9250 9253 9256 9258 9258 9257 9257 9260 9267 9275 9283 9288
3452.9199 9289 9289 9290 9292 9296 9301 9305 9308 9309 9312 9316 9322 9328
3459.1875 9331 9331 9328 9324 9321 9321 9326 9332 9340 9345 9348 9349 9349
3465.4551 9351 9355 9360 9366 9369 9370 9369 9368 9368 9372 9377 9383 9387
3471.7227 9389 9389 9389 9389 9393 9398 9405 9411 9415 9416 9415 9412 9411
3477.9900 9411 9412 9414 9416 9417 9418 9421 9427 9434 9443 9450 9454 9454
3484.2576 9452 9448 9446 9445 9447 9450 9453 9456 9462 9470 9479 9488 9494
3490.5251 9497 9497 9497 9499 9503 9508 9512 9514 9512 9507 9501 9496 9494
3496.7927 9495 9500 9507 9514 9522 9528 9532 9535 9536 9536 9536 9536 9537
3503.0601 9541 9547 9554 9561 9564 9563 9559 9554 9551 9552 9557 9565 9573
3509.3276 9578 9579 9578 9576 9576 9576 9577 9578 9580 9581 9584 9590 9598
3515.5952 9606 9614 9620 9622 9622 9619 9615 9610 9606 9603 9600 9600 9602
3521.8628 9608 9617 9627 9634 9638 9638 9638 9640 9645 9652 9660 9666 9668
3528.1301 9669 9668 9668 9671 9675 9678 9681 9682 9681 9682 9685 9691 9699
3534.3977 9706 9711 9713 9712 9711 9713 9717 9724 9731 9736 9738 9737 9736
3540.6653 9736 9739 9743 9747 9750 9752 9752 9752 9753 9758 9766 9775 9782
3546.9329 9785 9784 9781 9781 9786 9796 9808 9817 9822 9819 9813 9808 9807
3553.2002 9811 9818 9825 9828 9829 9829 9829 9830 9833 9835 9838 9839 9841
3559.4678 9842 9844 9846 9847 9850 9852 9857 9862 9867 9869 9868 9863 9855
3565.7354 9847 9844 9847 9855 9864 9870 9872 9872 9870 9869 9870 9875 9883
3572.0029 9892 9900 9906 9907 9904 9900 9896 9894 9894 9895 9898 9902 9907
3578.2705 9915 9923 9929 9932 9932 9930 9927 9927 9927 9929 9931 9932 9932
3584.5378 9930 9928 9928 9928 9930 9932 9934 9934 9934 9935 9936 9937 9938
3590.8054 9939 9940 9943 9948 9955 9961 9966 9966 9961 9955 9950 9947 9948
3597.0730 9951 9954 9957 9959 9959 9960 9962 9965 9971 9977 9983 9987 9989
3603.3406 9991 9992 9993 9994 9995 9996 9997 9997 9997 9996 9994 9990 9987
3609.6079 9986 9989 9992 9995 9996 9992 9986 9982 9981 9985 9992 10000 10007
3615.8755 10014 10020 10027 10034 10040 10045 10046 10044 10037 10030 10024
3621.1787 10021 10020 10022 10023 10024 10024 10023 10024 10027 10031 10035
3626.4822 10039 10040 10039 10034 10023 10012 10007 10010 10017 10025 10032
3631.7854 10038 10040 10041 10038 10034 10027 10021 10016 10015 10019 10027
3637.0886 10038 10047 10052 10052 10049 10048 10048 10052 10057 10061 10061
3642.3918 10058 10053 10049 10046 10047 10049 10052 10055 10058 10061 10062
3647.6953 10063 10064 10065 10068 10072 10073 10070 10063 10054 10048 10047
3652.9985 10051 10060 10072 10085 10096 10102 10101 10095 10089 10084 10082
3658.3018 10080 10079 10077 10073 10067 10061 10054 10050 10049 10052 10058
3663.6050 10066 10074 10081 10084 10084 10082 10079 10076 10075 10077 10080
3668.9084 10084 10086 10083 10078 10075 10077 10084 10093 10103 10110 10110
3674.2117 10099 10074 10050 10044 10054 10066 10074 10075 10072 10067 10065
3679.5149 10069 10078 10090 10100 10105 10105 10100 10094 10088 10086 10089
3684.8181 10094 10100 10104 10105 10102 10096 10090 10089 10093 10098 10100
3690.1216 10099 10095 10093 10095 10100 10106 10111 10113 10112 10110 10109
3695.4248 10110 10111 10111 10108 10104 10099 10095 10095 10098 10104 10110
3700.7280 10116 10120 10121 10120 10121 10122 10123 10122 10118 10111 10103
3706.0313 10096 10092 10092 10095 10099 10104 10110 10117 10125 10133 10139
3711.3347 10140 10132 10117 10101 10087 10079 10076 10079 10085 10094 10102
3716.6379 10108 10110 10110 10110 10112 10118 10123 10126 10124 10116 10103
3721.9412 10092 10088 10091 10100 10108 10113 10113 10110 10104 10100 10099
3727.2444 10100 10101 10103 10106 10108 10112 10116 10119 10120 10118 10117
3732.5479 10119 10125 10131 10133 10124 10103 10079 10063 10059 10063 10071
3737.8511 10077 10083 10089 10095 10102 10108 10112 10115 10118 10120 10121
3743.1543 10117 10103 10080 10064 10063 10072 10080 10084 10083 10079 10072
3748.4575 10068 10070 10080 10093 10106 10118 10126 10129 10126 10119 10111
3753.7610 10106 10102 10101 10101 10101 10100 10098 10099 10101 10108 10117
3759.0642 10125 10129 10127 10118 10107 10097 10090 10087 10088 10092 10097
3764.3674 10100 10101 10100 10099 10099 10102 10104 10107 10109 10110 10112
3769.6707 10114 10115 10115 10115 10113 10110 10106 10101 10096 10091 10089
3774.9741 10088 10091 10094 10099 10104 10108 10112 10114 10114 10111 10108
3780.2773 10105 10104 10103 10103 10102 10099 10096 10092 10090 10090 10093
3785.5806 10096 10100 10102 10102 10101 10099 10097 10095 10093 10092 10093
3790.8838 10096 10100 10104 10107 10109 10108 10106 10104 10104 10104 10104
3796.1873 10101 10095 10089 10085 10086 10092 10102 10115 10128 10136 10132
3801.4905 10119 10105 10096 10093 10091 10091 10090 10087 10084 10079 10074
3806.7937 10071 10071 10075 10082 10091 10101 10110 10117 10120 10118 10113
3812.0969 10107 10103 10101 10101 10100 10098 10094 10090 10087 10088 10092
3817.4004 10096 10099 10100 10099 10094 10085 10074 10067 10071 10083 10096
3822.7036 10106 10112 10114 10113 10109 10104 10099 10096 10096 10099 10103
3828.0068 10108 10112 10114 10114 10111 10106 10099 10093 10091 10092 10093
3833.3101 10094 10094 10094 10094 10097 10101 10107 10114 10120 10124 10127
3838.6135 10127 10124 10119 10114 10110 10107 10105 10102 10097 10091 10086
3843.9167 10084 10087 10092 10096 10098 10098 10098 10099 10101 10104 10108
3849.2200 10112 10116 10121 10129 10140 10155 10170 10176 10165 10137 10112
3854.5232 10097 10093 10094 10095 10094 10092 10090 10091 10095 10101 10108
3859.8267 10113 10115 10112 10106 10099 10094 10092 10093 10096 10101 10107
3865.1299 10111 10113 10115 10117 10119 10122 10122 10117 10106 10090 10079
3870.4331 10078 10083 10090 10097 10102 10105 10104 10103 10102 10104 10108
3875.7363 10112 10116 10118 10117 10114 10107 10098 10086 10073 10064 10063
3881.0398 10067 10075 10081 10085 10087 10086 10084 10082 10082 10084 10088
3886.3430 10091 10094 10095 10095 10096 10097 10099 10101 10102 10103 10102
3891.6462 10101 10100 10100 10100 10100 10101 10103 10105 10108 10109 10109
3896.9495 10107 10103 10098 10093 10091 10091 10094 10096 10098 10099 10101
3902.2529 10103 10107 10110 10110 10107 10100 10091 10083 10077 10074 10075
3907.5562 10080 10089 10099 10108 10115 10118 10117 10114 10110 10106 10102
3912.8594 10099 10095 10091 10088 10086 10086 10088 10091 10095 10098 10100
3918.1626 10102 10103 10103 10102 10099 10095 10092 10089 10088 10089 10091
3923.4661 10096 10101 10106 10109 10110 10108 10105 10103 10101 10101 10102
3928.7693 10102 10100 10097 10094 10091 10090 10092 10095 10099 10102 10103
3934.0725 10104 10103 10102 10101 10103 10105 10108 10109 10108 10103 10097
3939.3757 10091 10086 10084 10084 10087 10092 10099 10104 10108 10109 10107
3944.6792 10103 10097 10092 10087 10085 10083 10084 10085 10087 10090 10094
3949.9824 10099 10102 10105 10105 10104 10102 10100 10099 10097 10095 10091
3955.2856 10087 10082 10078 10076 10076 10078 10080 10083 10087 10091 10094
3960.5889 10098 10102 10105 10108 10110 10110 10109 10104 10099 10092 10085
3965.8923 10081 10079 10079 10080 10083 10084 10085 10084 10084 10084 10086
3971.1956 10089 10092 10094 10095 10094 10094 10093 10092 10091 10091 10090
3976.4988 10089 10087 10085 10082 10080 10080 10080 10081 10081 10082 10084
3981.8020 10087 10092 10097 10100 10100 10097 10094 10092 10094 10097 10101
3987.1055 10104 10104 10102 10099 10095 10090 10086 10083 10081 10081 10083
3992.4087 10085 10088 10090 10091 10092 10092 10091 10090 10087 10085 10083
3997.7119 10082 10084 10087 10090 10093 10094
##END= 
