##TITLE= INCLATTOSIO
##JCAMP-DX= 4.24
##DATA TYPE= INFRARED SPECTRUM
##ORIGIN= JASCO
##OWNER= 
##DATE= 22/04/12
##TIME= 15:27:35
##SPECTROMETER/DATA SYSTEM= 
##RESOLUTION= 
##DELTAX=   0.48211674
##XUNITS= 1/CM
##YUNITS= TRANSMITTANCE
##XFACTOR= 1.00000
##YFACTOR= 0.0001
##FIRSTX=   599.7532
##LASTX=  4000.1226
##NPOINTS=     7054
##FIRSTY=      0.87412
##MAXY=      1.05451
##MINY=      0.87136
##XYDATA= (X++(Y..Y))
599.7532 8741 8738 8752 8779 8804 8814 8805 8780 8754 8740 8739 8747 8753 8754
606.5029 8756 8773 8814 8876 8944 8997 9020 9012 8983 8951 8927 8918 8925 8945
613.2525 8972 9000 9025 9045 9061 9075 9089 9102 9105 9093 9061 9018 8975 8945
620.0021 8936 8950 8983 9023 9058 9077 9072 9044 8999 8950 8910 8893 8900 8922
626.7518 8948 8963 8962 8945 8914 8875 8832 8788 8749 8722 8714 8730 8770 8828
633.5014 8897 8966 9029 9079 9112 9130 9138 9144 9155 9174 9196 9212 9214 9200
640.2510 9176 9156 9150 9161 9185 9214 9238 9252 9253 9244 9231 9218 9208 9204
647.0007 9202 9200 9196 9189 9183 9179 9179 9182 9187 9195 9203 9211 9218 9222
653.7503 9220 9210 9192 9166 9137 9114 9106 9123 9164 9216 9261 9278 9261 9216
660.4999 9162 9116 9089 9081 9087 9096 9101 9097 9086 9073 9063 9062 9072 9100
667.2496 9159 9267 9396 9447 9409 9336 9258 9181 9117 9079 9076 9110 9165 9217
673.9992 9243 9234 9195 9144 9100 9074 9070 9086 9116 9157 9206 9257 9305 9342
680.7488 9362 9368 9367 9373 9392 9425 9457 9467 9434 9355 9244 9132 9053 9027
687.4985 9057 9129 9220 9309 9380 9422 9429 9396 9329 9238 9145 9078 9057 9092
694.2481 9172 9270 9352 9386 9365 9302 9232 9191 9194 9233 9275 9288 9256 9193
700.9977 9127 9086 9081 9105 9143 9181 9213 9240 9263 9277 9282 9282 9282 9286
707.7474 9289 9281 9249 9189 9111 9033 8972 8942 8946 8978 9032 9097 9164 9224
714.4970 9267 9292 9299 9290 9270 9240 9204 9165 9126 9092 9066 9051 9049 9061
721.2466 9088 9128 9177 9228 9271 9300 9312 9311 9305 9301 9301 9303 9302 9297
727.9963 9289 9283 9280 9282 9286 9287 9285 9283 9283 9289 9302 9321 9343 9367
734.7459 9390 9411 9426 9436 9442 9446 9456 9475 9507 9552 9608 9668 9729 9785
741.4955 9834 9877 9914 9947 9982 10021 10071 10132 10205 10283 10359 10427
747.2809 10481 10519 10540 10545 10536 10518 10498 10480 10464 10448 10424
752.5842 10389 10344 10298 10258 10231 10217 10215 10220 10229 10238 10241
757.8875 10230 10200 10155 10106 10070 10062 10087 10146 10224 10302 10361
763.1908 10388 10382 10357 10329 10308 10294 10278 10248 10196 10124 10042
768.4941 9965 9904 9862 9832 9802 9763 9709 9642 9568 9496 9434 9386 9351 9328
775.2437 9311 9295 9281 9267 9257 9255 9261 9275 9292 9309 9326 9342 9359 9378
781.9933 9398 9417 9432 9445 9457 9471 9489 9510 9531 9550 9568 9583 9596 9608
788.7430 9619 9628 9636 9642 9646 9647 9648 9650 9657 9670 9688 9704 9717 9722
795.4926 9721 9718 9717 9718 9721 9723 9722 9718 9713 9709 9709 9714 9725 9738
802.2422 9752 9762 9766 9760 9747 9733 9724 9725 9736 9752 9769 9784 9794 9802
808.9919 9806 9805 9796 9778 9753 9726 9703 9689 9687 9696 9713 9733 9751 9762
815.7415 9766 9763 9756 9750 9750 9757 9773 9795 9819 9837 9846 9841 9824 9799
822.4911 9771 9749 9735 9730 9733 9738 9741 9740 9734 9725 9714 9706 9702 9704
829.2408 9714 9730 9748 9764 9776 9782 9784 9784 9782 9779 9775 9768 9760 9752
835.9904 9744 9736 9731 9728 9727 9731 9736 9741 9744 9744 9741 9739 9738 9739
842.7401 9743 9747 9752 9757 9764 9773 9784 9796 9807 9814 9819 9821 9822 9822
849.4897 9821 9818 9811 9799 9784 9768 9757 9753 9757 9766 9775 9781 9781 9775
856.2393 9768 9762 9759 9760 9763 9765 9767 9767 9768 9772 9776 9779 9778 9771
862.9890 9759 9745 9732 9722 9714 9705 9694 9682 9672 9665 9661 9658 9652 9641
869.7386 9625 9606 9587 9571 9558 9545 9530 9510 9486 9461 9441 9430 9430 9442
876.4882 9462 9488 9516 9547 9579 9611 9639 9661 9675 9683 9686 9688 9689 9694
883.2379 9702 9716 9733 9750 9765 9774 9776 9772 9765 9757 9749 9739 9729 9718
889.9875 9709 9700 9692 9683 9671 9657 9642 9627 9616 9607 9600 9590 9577 9558
896.7371 9535 9511 9488 9471 9461 9458 9463 9476 9496 9523 9555 9589 9623 9653
903.4868 9677 9694 9704 9708 9707 9703 9699 9696 9697 9701 9706 9709 9709 9704
910.2364 9693 9678 9660 9640 9621 9606 9595 9590 9589 9590 9591 9591 9594 9602
916.9860 9618 9642 9671 9700 9726 9744 9755 9759 9758 9754 9750 9746 9745 9748
923.7357 9752 9758 9764 9767 9766 9763 9757 9751 9745 9740 9735 9731 9726 9720
930.4853 9713 9707 9701 9697 9696 9697 9698 9699 9700 9701 9702 9703 9703 9702
937.2349 9698 9694 9689 9684 9680 9677 9675 9674 9672 9669 9664 9658 9651 9647
943.9846 9648 9653 9662 9671 9676 9677 9674 9668 9663 9658 9655 9652 9649 9645
950.7342 9640 9633 9624 9614 9606 9602 9604 9612 9621 9627 9627 9621 9613 9606
957.4838 9605 9609 9616 9622 9623 9618 9606 9589 9572 9556 9546 9541 9542 9545
964.2335 9549 9551 9551 9549 9546 9543 9540 9535 9528 9517 9504 9489 9474 9462
970.9831 9455 9453 9454 9457 9460 9460 9457 9451 9442 9431 9417 9403 9388 9373
977.7327 9358 9344 9329 9315 9301 9289 9278 9269 9258 9245 9228 9206 9181 9156
984.4824 9135 9118 9105 9094 9085 9079 9076 9080 9093 9114 9139 9167 9196 9223
991.2320 9249 9273 9294 9310 9320 9325 9326 9324 9322 9318 9311 9303 9291 9278
997.9816 9262 9244 9226 9205 9183 9159 9133 9108 9087 9071 9064 9065 9073 9085
1004.7313 9100 9117 9133 9148 9161 9171 9176 9176 9173 9166 9157 9146 9135
1010.9988 9123 9111 9096 9079 9059 9037 9016 8995 8974 8954 8933 8912 8892
1017.2663 8877 8868 8866 8870 8879 8893 8910 8931 8953 8975 8993 9004 9008
1023.5338 9004 8995 8982 8965 8943 8917 8889 8860 8835 8817 8807 8802 8801
1029.8014 8802 8803 8806 8811 8818 8826 8832 8836 8838 8841 8845 8853 8863
1036.0688 8876 8891 8909 8929 8954 8981 9011 9042 9074 9106 9139 9172 9203
1042.3364 9233 9260 9284 9303 9319 9332 9342 9351 9358 9364 9367 9365 9358
1048.6039 9346 9330 9312 9292 9270 9246 9221 9198 9179 9163 9148 9133 9115
1054.8715 9097 9078 9061 9047 9038 9033 9033 9039 9050 9066 9083 9102 9121
1061.1389 9139 9154 9165 9169 9166 9155 9137 9117 9097 9080 9066 9054 9042
1067.4065 9029 9016 9004 8994 8989 8990 8998 9011 9030 9054 9080 9106 9129
1073.6740 9149 9167 9184 9201 9221 9241 9258 9272 9280 9281 9277 9269 9260
1079.9415 9248 9236 9223 9209 9195 9182 9172 9168 9169 9178 9192 9207 9223
1086.2090 9236 9244 9248 9246 9236 9219 9195 9166 9136 9109 9089 9077 9074
1092.4766 9077 9082 9087 9091 9098 9108 9126 9151 9182 9215 9248 9280 9310
1098.7440 9339 9367 9393 9417 9440 9462 9483 9502 9517 9527 9533 9536 9538
1105.0116 9540 9542 9543 9541 9534 9523 9507 9489 9470 9451 9432 9414 9399
1111.2791 9386 9376 9367 9357 9343 9328 9312 9301 9297 9304 9319 9342 9369
1117.5466 9397 9425 9449 9470 9486 9500 9513 9528 9546 9566 9585 9601 9613
1123.8141 9622 9630 9639 9648 9658 9665 9669 9667 9660 9649 9635 9618 9599
1130.0817 9580 9562 9548 9536 9527 9519 9513 9508 9507 9509 9511 9512 9509
1136.3491 9503 9495 9490 9489 9489 9488 9483 9473 9461 9453 9452 9461 9477
1142.6167 9495 9510 9523 9535 9551 9572 9598 9628 9656 9680 9699 9717 9734
1148.8842 9753 9772 9788 9801 9809 9814 9817 9821 9826 9830 9832 9831 9828
1155.1517 9825 9821 9818 9815 9812 9809 9804 9799 9793 9785 9777 9767 9755
1161.4192 9742 9727 9713 9699 9685 9670 9655 9641 9629 9621 9618 9619 9623
1167.6868 9627 9631 9636 9643 9655 9670 9689 9710 9729 9744 9756 9764 9772
1173.9542 9780 9792 9807 9824 9841 9854 9862 9865 9864 9862 9863 9867 9873
1180.2218 9880 9886 9888 9889 9889 9890 9892 9894 9895 9895 9893 9890 9888
1186.4893 9886 9887 9889 9892 9895 9896 9894 9889 9882 9875 9868 9863 9860
1192.7568 9857 9855 9851 9846 9838 9828 9817 9806 9796 9789 9785 9783 9779
1199.0243 9773 9764 9753 9743 9737 9738 9743 9752 9762 9770 9777 9785 9794
1205.2919 9805 9818 9831 9844 9853 9859 9862 9863 9862 9861 9861 9863 9865
1211.5593 9868 9869 9869 9867 9863 9857 9852 9848 9845 9845 9845 9846 9847
1217.8269 9847 9846 9844 9842 9840 9838 9838 9841 9846 9853 9862 9872 9881
1224.0944 9887 9892 9894 9895 9896 9897 9898 9899 9900 9901 9903 9906 9909
1230.3619 9910 9909 9905 9900 9896 9894 9893 9893 9892 9889 9886 9883 9881
1236.6294 9880 9878 9875 9873 9870 9867 9864 9860 9856 9851 9845 9841 9837
1242.8970 9835 9834 9834 9835 9835 9836 9836 9836 9836 9838 9841 9845 9850
1249.1644 9856 9862 9868 9874 9880 9885 9891 9897 9906 9916 9929 9945 9961
1255.4320 9977 9993 10006 10017 10026 10032 10038 10043 10050 10058 10067
1260.7352 10076 10081 10084 10083 10081 10078 10074 10071 10070 10075 10090
1266.0386 10116 10146 10167 10165 10135 10082 10025 9982 9964 9975 10009 10057
1271.8240 10108 10153 10188 10215 10235 10251 10262 10268 10269 10266 10257
1277.1272 10244 10227 10209 10188 10166 10143 10118 10092 10066 10042 10019
1282.4305 10000 9983 9968 9955 9943 9933 9925 9918 9913 9909 9903 9896 9890
1288.6980 9884 9882 9883 9886 9889 9890 9888 9882 9875 9867 9859 9851 9842
1294.9656 9833 9825 9819 9815 9813 9813 9812 9812 9813 9814 9818 9823 9829
1301.2330 9834 9836 9835 9831 9825 9818 9812 9810 9811 9814 9819 9824 9829
1307.5006 9834 9839 9842 9844 9844 9842 9839 9837 9835 9835 9835 9836 9835
1313.7681 9833 9830 9826 9821 9816 9812 9810 9808 9806 9803 9798 9793 9787
1320.0356 9780 9773 9765 9757 9750 9744 9739 9736 9733 9732 9732 9734 9736
1326.3031 9738 9740 9741 9741 9741 9741 9739 9736 9732 9726 9720 9715 9711
1332.5707 9709 9708 9708 9708 9706 9703 9699 9693 9686 9679 9671 9663 9655
1338.8381 9648 9643 9641 9643 9648 9655 9662 9669 9676 9683 9690 9698 9706
1345.1057 9715 9724 9732 9740 9747 9753 9759 9765 9770 9775 9778 9782 9785
1351.3732 9786 9786 9784 9778 9769 9758 9747 9735 9724 9715 9706 9699 9692
1357.6407 9687 9685 9686 9690 9698 9708 9717 9727 9735 9743 9750 9757 9760
1363.9082 9761 9758 9754 9748 9742 9737 9734 9733 9736 9742 9750 9760 9769
1370.1758 9776 9780 9781 9780 9779 9778 9778 9777 9775 9772 9767 9762 9757
1376.4432 9754 9750 9747 9744 9740 9736 9733 9730 9727 9724 9722 9721 9720
1382.7108 9720 9720 9721 9722 9723 9726 9731 9737 9743 9749 9752 9752 9750
1388.9783 9747 9745 9744 9744 9744 9745 9746 9747 9749 9752 9756 9762 9769
1395.2458 9776 9782 9786 9790 9795 9800 9808 9816 9822 9827 9828 9828 9828
1401.5133 9827 9826 9824 9823 9822 9820 9817 9813 9807 9800 9796 9792 9791
1407.7809 9789 9788 9785 9781 9777 9773 9769 9765 9760 9755 9751 9747 9744
1414.0483 9741 9738 9736 9734 9732 9732 9731 9732 9732 9733 9731 9728 9723
1420.3159 9718 9714 9710 9707 9705 9704 9704 9704 9704 9704 9704 9705 9708
1426.5834 9711 9714 9718 9721 9724 9726 9729 9733 9737 9741 9743 9744 9744
1432.8510 9745 9747 9750 9755 9761 9765 9765 9763 9760 9761 9766 9773 9779
1439.1184 9782 9784 9785 9787 9790 9795 9801 9805 9808 9809 9809 9812 9817
1445.3860 9824 9831 9839 9844 9847 9848 9848 9848 9850 9851 9852 9853 9853
1451.6534 9853 9852 9851 9850 9849 9849 9851 9854 9859 9864 9868 9867 9865
1457.9210 9866 9872 9880 9887 9892 9895 9896 9898 9900 9904 9909 9913 9917
1464.1885 9917 9912 9904 9896 9891 9888 9886 9886 9885 9884 9881 9879 9878
1470.4561 9878 9883 9893 9907 9921 9929 9929 9926 9923 9920 9920 9920 9921
1476.7235 9922 9923 9924 9926 9928 9930 9933 9935 9936 9937 9936 9935 9934
1482.9911 9934 9936 9937 9938 9939 9940 9940 9940 9941 9944 9947 9951 9955
1489.2585 9959 9960 9959 9956 9953 9951 9950 9950 9949 9949 9947 9946 9945
1495.5261 9945 9946 9950 9954 9957 9957 9956 9953 9950 9946 9943 9940 9938
1501.7936 9937 9937 9938 9940 9942 9945 9950 9956 9966 9973 9970 9956 9941
1508.0612 9933 9932 9936 9941 9947 9951 9953 9952 9951 9949 9947 9947 9947
1514.3286 9949 9953 9957 9960 9962 9959 9954 9950 9948 9949 9951 9953 9954
1520.5962 9956 9956 9956 9957 9957 9956 9955 9953 9950 9947 9944 9942 9942
1526.8636 9943 9945 9946 9945 9944 9944 9944 9945 9946 9948 9950 9951 9951
1533.1312 9948 9942 9938 9936 9937 9942 9947 9953 9957 9960 9959 9955 9949
1539.3987 9946 9949 9956 9960 9963 9965 9966 9967 9967 9967 9965 9962 9959
1545.6663 9956 9953 9951 9950 9950 9950 9951 9951 9951 9949 9948 9947 9947
1551.9337 9948 9950 9951 9952 9953 9953 9952 9952 9952 9952 9952 9955 9962
1558.2013 9976 9990 9987 9974 9964 9959 9957 9955 9954 9953 9952 9952 9954
1564.4688 9957 9961 9963 9963 9961 9959 9956 9954 9953 9954 9956 9957 9958
1570.7363 9959 9960 9963 9967 9972 9976 9980 9984 9988 9991 9993 9992 9986
1577.0038 9978 9971 9966 9963 9961 9959 9959 9960 9962 9965 9968 9970 9971
1583.2714 9971 9969 9965 9961 9955 9948 9941 9933 9925 9918 9912 9907 9903
1589.5389 9901 9900 9901 9904 9908 9911 9913 9915 9916 9917 9919 9921 9925
1595.8064 9928 9931 9932 9932 9931 9930 9932 9935 9939 9944 9946 9947 9945
1602.0740 9943 9940 9939 9938 9937 9935 9935 9934 9935 9937 9939 9940 9939
1608.3414 9937 9934 9932 9930 9929 9929 9929 9928 9926 9924 9923 9923 9924
1614.6090 9926 9927 9928 9929 9927 9923 9918 9913 9910 9908 9907 9908 9909
1620.8765 9912 9914 9916 9918 9921 9924 9928 9933 9937 9942 9946 9950 9954
1627.1440 9956 9958 9959 9960 9961 9963 9965 9966 9967 9967 9967 9967 9968
1633.4115 9970 9975 9980 9985 9983 9973 9960 9948 9941 9936 9934 9934 9934
1639.6791 9934 9933 9930 9927 9923 9920 9918 9918 9918 9920 9922 9924 9927
1645.9465 9930 9933 9933 9928 9922 9917 9914 9913 9914 9917 9921 9926 9934
1652.2141 9946 9959 9960 9948 9937 9932 9930 9929 9928 9928 9927 9927 9928
1658.4816 9929 9929 9929 9929 9928 9927 9927 9928 9930 9933 9934 9935 9935
1664.7491 9935 9936 9938 9940 9944 9948 9951 9954 9955 9954 9951 9948 9945
1671.0166 9944 9943 9944 9946 9948 9950 9953 9955 9956 9956 9953 9951 9949
1677.2842 9949 9949 9949 9950 9950 9949 9947 9945 9944 9946 9951 9961 9974
1683.5516 9989 9995 9983 9969 9960 9957 9956 9957 9960 9965 9970 9973 9974
1689.8192 9972 9969 9966 9964 9964 9964 9964 9963 9961 9958 9956 9957 9964
1696.0867 9974 9982 9984 9982 9978 9971 9959 9942 9926 9928 9943 9955 9962
1702.3542 9964 9964 9964 9965 9967 9972 9976 9980 9982 9982 9980 9978 9975
1708.6217 9971 9967 9965 9964 9967 9971 9976 9980 9981 9980 9978 9975 9972
1714.8893 9969 9966 9963 9960 9960 9964 9975 9986 9992 9994 9993 9991 9990
1721.1567 9988 9987 9987 9987 9989 9992 9995 9997 9999 9999 10000 10001 10001
1727.4243 10002 10002 10001 10000 9999 9997 9996 9995 9995 9997 10001 10007
1733.2097 10014 10021 10022 10018 10015 10014 10014 10015 10015 10014 10012
1738.5129 10008 10004 9999 9996 9996 9997 9998 9999 9998 9997 9995 9993 9992
1744.7805 9991 9991 9994 9997 10002 10006 10008 10006 10003 9998 9995 9995
1750.5659 9997 9999 10000 9998 9994 9988 9982 9977 9974 9973 9974 9977 9980
1756.8334 9984 9985 9984 9981 9977 9972 9966 9962 9960 9961 9965 9970 9974
1763.1010 9977 9978 9979 9980 9980 9980 9979 9976 9972 9968 9963 9960 9959
1769.3684 9959 9961 9963 9965 9966 9964 9961 9959 9958 9958 9960 9962 9964
1775.6360 9965 9965 9964 9962 9960 9959 9961 9966 9971 9975 9978 9978 9977
1781.9034 9976 9977 9978 9977 9975 9970 9964 9959 9957 9958 9960 9962 9962
1788.1710 9961 9960 9959 9961 9965 9971 9977 9982 9985 9985 9984 9982 9979
1794.4385 9977 9975 9973 9971 9970 9971 9973 9976 9979 9981 9981 9978 9974
1800.7061 9971 9969 9968 9969 9970 9971 9972 9973 9976 9978 9979 9979 9978
1806.9735 9975 9972 9969 9966 9964 9962 9961 9961 9962 9963 9963 9963 9965
1813.2411 9969 9975 9980 9981 9978 9972 9964 9959 9960 9963 9968 9971 9971
1819.5085 9969 9968 9969 9971 9973 9974 9974 9976 9979 9985 9991 9995 9993
1825.7761 9986 9978 9971 9967 9967 9971 9978 9988 9997 10000 9994 9983 9969
1832.0436 9956 9947 9944 9946 9952 9958 9961 9962 9962 9964 9967 9972 9976
1838.3112 9977 9977 9974 9969 9963 9955 9948 9944 9947 9956 9968 9978 9978
1844.5786 9969 9959 9954 9955 9960 9966 9971 9974 9974 9974 9973 9973 9972
1850.8462 9970 9967 9964 9962 9962 9965 9969 9973 9975 9975 9974 9975 9980
1857.1136 9988 9998 10007 10012 10013 10011 10007 10001 9993 9983 9973 9965
1862.8990 9960 9959 9959 9959 9957 9955 9955 9961 9972 9985 9996 10000 9998
1869.1666 9994 9992 9993 9992 9988 9979 9967 9956 9949 9948 9953 9961 9969
1875.4341 9977 9982 9984 9982 9976 9967 9960 9957 9961 9970 9980 9986 9984
1881.7017 9976 9967 9960 9961 9967 9976 9985 9991 9995 9997 9998 9998 9997
1887.9691 9996 9998 10005 10016 10026 10029 10021 10005 9985 9967 9955 9953
1893.7545 9960 9972 9983 9988 9987 9982 9979 9979 9981 9985 9986 9986 9986
1900.0221 9990 9998 10009 10019 10025 10024 10017 10008 9998 9987 9977 9969
1905.8075 9965 9967 9975 9986 9994 9995 9988 9978 9969 9967 9971 9975 9977
1912.0750 9972 9962 9948 9937 9931 9933 9943 9961 9986 10016 10046 10071 10083
1918.3425 10078 10062 10041 10022 10006 9995 9987 9982 9984 9992 10005 10018
1924.1279 10024 10017 9996 9967 9938 9920 9918 9932 9955 9978 9994 10003 10007
1930.3954 10010 10015 10019 10020 10015 10005 9994 9985 9981 9984 9991 9999
1936.1808 10003 10004 10003 10001 10001 10001 10000 9996 9989 9982 9977 9975
1941.9662 9977 9979 9981 9983 9984 9985 9986 9989 9998 10015 10037 10057 10066
1948.2338 10057 10029 9993 9963 9950 9959 9985 10017 10045 10064 10074 10077
1954.0192 10077 10076 10075 10071 10060 10040 10010 9975 9939 9911 9898 9907
1959.8046 9938 9987 10045 10100 10142 10163 10164 10150 10129 10108 10094
1965.1078 10090 10093 10099 10099 10084 10053 10014 9980 9964 9968 9988 10013
1970.8932 10031 10041 10048 10062 10092 10134 10176 10202 10201 10173 10129
1976.1965 10083 10046 10024 10014 10012 10016 10027 10046 10070 10090 10098
1981.4998 10087 10062 10032 10014 10017 10042 10075 10097 10091 10056 10003
1986.8031 9955 9933 9946 9988 10044 10096 10133 10152 10155 10141 10112 10075
1992.5885 10041 10022 10023 10041 10066 10086 10095 10091 10078 10061 10042
1997.8917 10022 10002 9984 9975 9976 9987 10003 10015 10016 10005 9985 9963
2003.6771 9947 9944 9957 9985 10025 10068 10102 10119 10114 10092 10062 10037
2009.4625 10024 10020 10019 10013 9998 9980 9966 9964 9977 9998 10021 10040
2015.2479 10056 10069 10084 10101 10117 10124 10113 10082 10033 9979 9934 9910
2021.0333 9911 9933 9966 9995 10014 10021 10024 10032 10054 10093 10142 10188
2026.8187 10214 10208 10173 10127 10091 10083 10105 10144 10180 10196 10184
2032.1221 10149 10103 10057 10021 10001 10000 10015 10042 10073 10099 10110
2037.4253 10099 10065 10015 9962 9919 9901 9913 9953 10012 10076 10126 10150
2043.2107 10139 10096 10034 9975 9938 9936 9966 10017 10068 10102 10108 10084
2048.9961 10040 9990 9954 9942 9954 9981 10007 10020 10018 10009 10007 10020
2054.7815 10046 10076 10099 10106 10101 10088 10075 10063 10053 10042 10028
2060.0847 10012 9998 9990 9991 10000 10014 10029 10039 10042 10039 10033 10030
2065.8701 10035 10046 10058 10063 10059 10045 10028 10015 10010 10014 10024
2071.1736 10035 10043 10047 10047 10043 10037 10029 10021 10014 10007 9999
2076.4768 9989 9977 9967 9960 9958 9960 9961 9961 9960 9963 9971 9982 9992
2082.7444 9994 9988 9973 9955 9939 9929 9928 9936 9952 9973 9993 10008 10013
2089.0117 10006 9989 9967 9945 9931 9927 9933 9944 9958 9971 9984 9996 10009
2095.2793 10021 10028 10028 10020 10008 9994 9984 9979 9978 9979 9981 9986
2101.0647 9992 10000 10005 10004 9997 9984 9971 9961 9957 9957 9961 9967 9975
2107.3323 9988 10003 10018 10026 10026 10015 10000 9985 9977 9975 9979 9983
2113.1177 9985 9983 9980 9977 9977 9979 9981 9980 9977 9973 9971 9975 9987
2119.3853 10004 10024 10039 10044 10036 10017 9993 9970 9955 9951 9955 9963
2125.1707 9972 9980 9989 9999 10009 10018 10022 10022 10018 10011 10002 9992
2130.9561 9985 9981 9986 9998 10019 10043 10070 10097 10123 10144 10154 10149
2136.7415 10130 10102 10077 10061 10053 10045 10032 10010 9988 9974 9977 9995
2142.5269 10019 10040 10052 10055 10053 10050 10047 10043 10038 10033 10028
2147.8301 10023 10019 10015 10011 10004 9995 9985 9982 9992 10016 10047 10073
2153.6155 10080 10068 10047 10034 10037 10052 10062 10052 10018 9976 9948 9954
2159.4009 9997 10065 10136 10189 10212 10200 10159 10103 10046 10000 9970 9957
2165.1863 9957 9966 9981 9998 10011 10020 10024 10025 10024 10024 10021 10016
2170.9717 10009 10003 9999 9997 9993 9987 9985 9995 10023 10068 10117 10152
2176.7571 10161 10144 10111 10077 10054 10046 10050 10060 10073 10086 10097
2182.0603 10100 10090 10064 10029 9994 9974 9978 10005 10046 10084 10108 10116
2187.8457 10112 10108 10107 10108 10101 10078 10040 9994 9954 9934 9939 9965
2193.6311 10001 10031 10045 10038 10014 9984 9961 9954 9966 9992 10023 10047
2199.4165 10058 10055 10041 10023 10009 10002 10001 10003 10004 9997 9983 9963
2205.2019 9945 9935 9937 9949 9965 9978 9987 9991 9996 10004 10018 10035 10048
2211.4695 10052 10045 10028 10007 9988 9978 9978 9985 9994 10004 10011 10013
2217.2549 10011 10001 9982 9956 9928 9904 9891 9892 9904 9921 9940 9954 9965
2223.5225 9970 9970 9965 9956 9946 9941 9946 9962 9987 10011 10026 10028 10018
2229.7898 10004 9993 9988 9985 9982 9972 9957 9942 9931 9930 9938 9952 9966
2236.0574 9978 9985 9987 9987 9986 9985 9984 9983 9981 9977 9972 9963 9952
2242.3250 9940 9929 9924 9926 9933 9942 9948 9950 9949 9948 9950 9955 9961
2248.5925 9964 9963 9957 9949 9939 9929 9918 9907 9899 9897 9903 9915 9931
2254.8599 9943 9951 9954 9957 9963 9972 9980 9982 9976 9964 9950 9941 9937
2261.1274 9938 9938 9936 9931 9924 9920 9921 9925 9932 9939 9947 9954 9962
2267.3950 9971 9980 9985 9985 9979 9969 9957 9947 9940 9939 9941 9945 9949
2273.6626 9953 9955 9954 9950 9945 9939 9935 9934 9936 9939 9943 9944 9942
2279.9299 9939 9937 9936 9939 9943 9946 9947 9945 9941 9938 9938 9942 9949
2286.1975 9956 9960 9962 9961 9958 9956 9955 9955 9956 9955 9951 9943 9934
2292.4651 9925 9920 9920 9926 9936 9948 9958 9963 9964 9960 9952 9944 9936
2298.7327 9931 9928 9928 9931 9935 9940 9944 9949 9951 9953 9952 9951 9948
2305.0000 9946 9944 9943 9943 9944 9944 9943 9942 9939 9935 9931 9925 9917
2311.2676 9909 9902 9897 9897 9900 9906 9912 9917 9923 9928 9932 9934 9933
2317.5352 9931 9930 9933 9941 9951 9957 9956 9945 9928 9914 9907 9909 9918
2323.8027 9926 9928 9925 9918 9912 9910 9914 9921 9928 9934 9936 9934 9931
2330.0701 9926 9922 9920 9920 9922 9925 9928 9930 9928 9924 9916 9908 9903
2336.3376 9903 9911 9925 9944 9962 9974 9977 9970 9954 9934 9916 9905 9904
2342.6052 9910 9919 9924 9921 9912 9900 9892 9892 9900 9912 9922 9929 9931
2348.8728 9929 9923 9915 9906 9898 9895 9898 9904 9911 9914 9913 9909 9907
2355.1401 9914 9931 9954 9978 9991 9989 9969 9936 9901 9875 9867 9880 9908
2361.4077 9942 9971 9987 9991 9986 9979 9973 9969 9965 9957 9944 9929 9918
2367.6753 9915 9918 9925 9929 9927 9920 9911 9905 9903 9904 9906 9908 9910
2373.9429 9913 9918 9923 9928 9929 9927 9926 9926 9930 9937 9943 9945 9942
2380.2102 9934 9924 9915 9911 9910 9913 9917 9922 9926 9931 9936 9941 9945
2386.4778 9945 9944 9940 9936 9934 9934 9937 9939 9941 9939 9935 9930 9927
2392.7454 9927 9931 9935 9938 9937 9933 9928 9923 9923 9926 9931 9937 9940
2399.0129 9940 9937 9934 9931 9931 9933 9936 9940 9943 9945 9947 9948 9947
2405.2803 9945 9940 9933 9925 9918 9913 9911 9913 9918 9923 9929 9933 9936
2411.5479 9937 9938 9940 9943 9944 9945 9942 9938 9933 9929 9927 9925 9923
2417.8154 9921 9920 9920 9922 9925 9928 9930 9930 9929 9927 9927 9928 9929
2424.0830 9931 9931 9930 9927 9925 9923 9922 9923 9926 9930 9933 9936 9936
2430.3503 9934 9929 9922 9917 9916 9919 9925 9932 9937 9938 9936 9932 9928
2436.6179 9927 9929 9934 9941 9947 9951 9950 9945 9937 9929 9923 9919 9916
2442.8855 9915 9916 9919 9923 9928 9931 9932 9931 9929 9926 9925 9925 9924
2449.1531 9924 9922 9921 9919 9917 9916 9915 9915 9917 9919 9923 9926 9929
2455.4204 9930 9930 9927 9923 9916 9909 9902 9898 9898 9901 9906 9912 9916
2461.6880 9920 9923 9925 9927 9928 9926 9922 9918 9914 9912 9911 9911 9912
2467.9556 9913 9914 9916 9917 9919 9920 9922 9925 9930 9934 9938 9941 9942
2474.2231 9942 9939 9934 9926 9917 9907 9900 9896 9896 9899 9902 9906 9911
2480.4905 9916 9922 9928 9931 9930 9925 9918 9912 9908 9906 9907 9908 9909
2486.7581 9910 9912 9916 9921 9926 9930 9931 9928 9923 9917 9912 9908 9905
2493.0256 9903 9902 9903 9906 9909 9911 9911 9909 9906 9904 9905 9910 9917
2499.2932 9924 9931 9934 9934 9932 9927 9922 9918 9914 9911 9909 9907 9905
2505.5605 9906 9908 9912 9916 9920 9921 9920 9916 9912 9907 9903 9900 9898
2511.8281 9898 9898 9899 9899 9898 9896 9895 9896 9900 9904 9910 9913 9915
2518.0957 9914 9913 9911 9912 9914 9916 9917 9915 9909 9901 9895 9893 9897
2524.3633 9904 9912 9919 9922 9923 9922 9920 9918 9916 9916 9918 9921 9924
2530.6306 9926 9925 9921 9915 9909 9906 9905 9904 9904 9903 9901 9900 9900
2536.8982 9901 9903 9906 9910 9915 9919 9922 9921 9917 9912 9908 9905 9905
2543.1658 9906 9907 9907 9905 9904 9904 9906 9909 9912 9914 9914 9911 9908
2549.4333 9903 9899 9896 9895 9896 9899 9903 9907 9911 9913 9914 9912 9909
2555.7007 9906 9904 9903 9904 9904 9904 9902 9900 9898 9898 9900 9903 9906
2561.9683 9907 9907 9905 9901 9896 9891 9888 9889 9894 9902 9911 9919 9923
2568.2358 9923 9920 9915 9912 9909 9908 9908 9908 9907 9906 9905 9904 9902
2574.5034 9902 9902 9902 9901 9898 9895 9892 9892 9895 9899 9905 9909 9911
2580.7710 9910 9909 9907 9907 9906 9905 9902 9898 9895 9893 9895 9898 9902
2587.0383 9906 9908 9911 9912 9912 9911 9907 9901 9895 9890 9887 9887 9889
2593.3059 9892 9895 9897 9898 9897 9897 9896 9895 9896 9897 9898 9900 9900
2599.5735 9900 9901 9902 9905 9909 9913 9917 9919 9919 9918 9915 9909 9901
2605.8411 9893 9885 9880 9880 9883 9889 9894 9897 9896 9895 9894 9896 9900
2612.1084 9904 9908 9909 9909 9907 9906 9906 9906 9905 9903 9898 9893 9889
2618.3760 9888 9889 9891 9893 9893 9891 9887 9884 9884 9886 9890 9894 9898
2624.6436 9900 9902 9902 9901 9899 9897 9895 9893 9893 9894 9896 9899 9901
2630.9111 9903 9903 9901 9898 9894 9891 9888 9887 9886 9885 9883 9882 9881
2637.1785 9881 9881 9882 9881 9881 9882 9882 9883 9883 9882 9881 9880 9879
2643.4460 9878 9877 9875 9873 9872 9873 9876 9881 9885 9888 9888 9886 9883
2649.7136 9880 9877 9876 9876 9875 9875 9873 9872 9872 9873 9874 9877 9879
2655.9812 9880 9880 9878 9876 9875 9874 9875 9877 9879 9881 9883 9884 9885
2662.2485 9885 9885 9884 9884 9883 9882 9881 9880 9881 9883 9885 9887 9887
2668.5161 9886 9883 9879 9875 9873 9873 9874 9876 9878 9880 9881 9882 9883
2674.7837 9884 9884 9883 9882 9880 9878 9877 9877 9878 9879 9881 9883 9884
2681.0513 9886 9886 9885 9882 9879 9876 9875 9876 9880 9883 9886 9886 9886
2687.3186 9885 9885 9887 9890 9893 9896 9896 9894 9891 9887 9884 9882 9881
2693.5862 9881 9882 9883 9884 9885 9885 9886 9886 9885 9884 9884 9884 9885
2699.8538 9887 9889 9890 9889 9888 9885 9882 9881 9881 9883 9887 9890 9893
2706.1213 9894 9893 9890 9887 9883 9881 9879 9879 9880 9881 9881 9881 9880
2712.3887 9879 9878 9878 9879 9879 9878 9877 9876 9874 9873 9871 9869 9866
2718.6563 9864 9863 9864 9865 9867 9868 9869 9869 9870 9870 9870 9869 9867
2724.9238 9865 9865 9865 9867 9869 9872 9873 9872 9870 9866 9862 9859 9857
2731.1914 9856 9856 9856 9855 9855 9855 9857 9860 9863 9865 9867 9867 9865
2737.4587 9864 9864 9864 9866 9867 9867 9867 9865 9864 9864 9865 9865 9865
2743.7263 9864 9863 9861 9860 9859 9858 9856 9855 9856 9857 9858 9860 9860
2749.9939 9860 9860 9860 9860 9861 9861 9861 9860 9857 9854 9852 9851 9852
2756.2615 9856 9860 9864 9867 9869 9870 9870 9870 9869 9868 9867 9865 9864
2762.5288 9863 9863 9864 9865 9866 9864 9862 9860 9859 9859 9861 9862 9862
2768.7964 9862 9860 9860 9861 9864 9868 9870 9870 9868 9864 9860 9857 9855
2775.0640 9854 9854 9854 9854 9854 9854 9856 9857 9859 9860 9861 9862 9863
2781.3315 9864 9865 9866 9866 9865 9864 9862 9862 9862 9863 9863 9863 9863
2787.5989 9862 9861 9861 9860 9859 9857 9856 9854 9853 9852 9852 9852 9852
2793.8665 9852 9851 9850 9849 9848 9847 9847 9846 9845 9844 9843 9843 9845
2800.1340 9848 9851 9853 9853 9852 9851 9850 9850 9851 9852 9852 9851 9849
2806.4016 9848 9846 9845 9844 9844 9844 9846 9848 9851 9853 9855 9856 9855
2812.6689 9854 9853 9852 9852 9851 9851 9850 9849 9848 9847 9847 9846 9845
2818.9365 9844 9843 9842 9841 9841 9841 9841 9842 9843 9845 9848 9849 9849
2825.2041 9846 9843 9841 9839 9840 9842 9846 9849 9852 9853 9852 9849 9844
2831.4717 9839 9835 9832 9831 9832 9833 9835 9836 9835 9834 9833 9833 9834
2837.7390 9837 9840 9842 9842 9841 9838 9836 9835 9836 9839 9844 9849 9853
2844.0066 9856 9858 9858 9858 9858 9858 9858 9857 9855 9854 9854 9854 9856
2850.2742 9859 9862 9864 9865 9865 9865 9865 9865 9866 9867 9868 9868 9869
2856.5417 9869 9869 9867 9865 9861 9858 9856 9856 9856 9855 9853 9850 9847
2862.8091 9845 9845 9845 9844 9842 9840 9838 9837 9837 9837 9838 9838 9836
2869.0767 9833 9830 9827 9825 9824 9823 9822 9820 9818 9817 9819 9822 9826
2875.3442 9829 9829 9826 9822 9816 9811 9807 9804 9803 9803 9805 9807 9809
2881.6118 9811 9811 9810 9809 9808 9807 9805 9802 9800 9799 9800 9803 9807
2887.8792 9810 9810 9807 9802 9798 9796 9796 9798 9802 9805 9807 9806 9802
2894.1467 9798 9793 9790 9787 9782 9774 9762 9747 9733 9724 9723 9729 9739
2900.4143 9752 9763 9772 9779 9786 9792 9800 9808 9817 9825 9833 9838 9841
2906.6819 9843 9846 9849 9853 9857 9862 9865 9868 9871 9874 9877 9879 9878
2912.9492 9875 9870 9865 9862 9862 9863 9866 9869 9871 9873 9875 9877 9880
2919.2168 9883 9885 9885 9884 9883 9883 9885 9888 9894 9901 9905 9906 9903
2925.4844 9896 9889 9883 9880 9880 9881 9882 9881 9878 9874 9869 9864 9860
2931.7520 9858 9857 9858 9858 9860 9861 9862 9863 9863 9863 9864 9866 9869
2938.0193 9874 9879 9882 9884 9884 9882 9880 9878 9876 9874 9873 9873 9874
2944.2869 9877 9879 9881 9883 9884 9884 9884 9885 9886 9889 9894 9899 9903
2950.5544 9907 9908 9908 9907 9906 9904 9902 9900 9900 9902 9906 9912 9919
2956.8220 9926 9929 9929 9926 9920 9912 9906 9901 9899 9900 9902 9906 9909
2963.0894 9912 9913 9913 9910 9907 9904 9903 9905 9909 9914 9919 9923 9925
2969.3569 9925 9924 9921 9916 9911 9905 9900 9896 9891 9886 9882 9879 9878
2975.6245 9879 9882 9886 9889 9892 9893 9895 9896 9898 9900 9901 9901 9900
2981.8921 9899 9898 9898 9898 9899 9900 9899 9899 9898 9898 9899 9901 9903
2988.1594 9905 9906 9905 9904 9902 9899 9898 9896 9894 9892 9890 9888 9887
2994.4270 9886 9885 9884 9883 9883 9885 9888 9891 9894 9896 9895 9893 9890
3000.6946 9886 9883 9879 9876 9874 9873 9875 9880 9887 9896 9904 9911 9913
3006.9622 9911 9906 9899 9891 9884 9879 9877 9877 9877 9877 9877 9876 9875
3013.2295 9874 9873 9873 9871 9869 9865 9860 9857 9854 9852 9852 9853 9854
3019.4971 9855 9856 9855 9853 9851 9848 9846 9844 9843 9844 9845 9846 9848
3025.7646 9850 9851 9851 9850 9848 9845 9843 9842 9842 9842 9841 9838 9834
3032.0322 9830 9827 9825 9825 9827 9828 9828 9828 9826 9825 9824 9824 9825
3038.2996 9826 9827 9826 9824 9822 9820 9819 9820 9821 9820 9818 9815 9810
3044.5671 9807 9805 9805 9806 9807 9809 9810 9812 9814 9817 9818 9818 9815
3050.8347 9810 9804 9799 9795 9792 9791 9790 9791 9793 9795 9797 9797 9796
3057.1023 9795 9793 9793 9793 9794 9796 9797 9798 9796 9794 9791 9789 9788
3063.3696 9788 9788 9789 9789 9789 9789 9788 9788 9787 9785 9783 9780 9779
3069.6372 9777 9775 9774 9772 9771 9772 9772 9773 9773 9773 9772 9771 9769
3075.9048 9767 9765 9765 9766 9768 9769 9770 9768 9765 9762 9759 9757 9756
3082.1724 9753 9749 9745 9742 9741 9743 9747 9750 9752 9751 9747 9742 9738
3088.4397 9735 9735 9737 9739 9741 9741 9740 9740 9741 9742 9743 9741 9738
3094.7073 9733 9730 9728 9729 9730 9730 9728 9725 9721 9720 9722 9726 9732
3100.9749 9737 9740 9740 9737 9732 9727 9724 9724 9726 9729 9731 9732 9730
3107.2424 9726 9721 9718 9717 9718 9721 9725 9727 9727 9723 9716 9709 9703
3113.5098 9701 9702 9705 9708 9711 9712 9711 9710 9708 9707 9706 9705 9706
3119.7773 9706 9707 9706 9704 9702 9700 9698 9698 9700 9702 9704 9705 9705
3126.0449 9702 9698 9692 9688 9685 9686 9690 9696 9701 9704 9705 9703 9699
3132.3125 9693 9687 9681 9676 9673 9671 9670 9671 9672 9673 9676 9679 9683
3138.5798 9687 9690 9691 9689 9685 9680 9676 9673 9673 9675 9677 9678 9677
3144.8474 9673 9668 9663 9660 9658 9659 9660 9660 9660 9660 9662 9666 9672
3151.1150 9678 9682 9681 9675 9667 9659 9653 9650 9650 9650 9650 9649 9647
3157.3826 9645 9645 9645 9647 9650 9652 9654 9655 9654 9653 9652 9651 9651
3163.6499 9651 9651 9651 9649 9647 9644 9642 9640 9639 9639 9641 9645 9648
3169.9175 9651 9652 9651 9647 9642 9636 9631 9630 9631 9635 9639 9641 9640
3176.1851 9636 9630 9625 9624 9627 9633 9640 9645 9645 9643 9638 9633 9630
3182.4526 9630 9632 9636 9639 9642 9642 9641 9638 9633 9627 9621 9617 9616
3188.7200 9618 9623 9628 9633 9636 9639 9640 9640 9637 9633 9629 9627 9627
3194.9875 9630 9634 9638 9642 9645 9646 9647 9646 9645 9643 9641 9641 9643
3201.2551 9646 9648 9650 9651 9651 9650 9648 9647 9645 9642 9637 9632 9629
3207.5227 9629 9633 9639 9647 9654 9658 9659 9659 9660 9661 9663 9664 9663
3213.7900 9661 9659 9658 9657 9656 9657 9658 9660 9662 9664 9664 9661 9656
3220.0576 9652 9651 9656 9662 9669 9672 9672 9669 9665 9664 9664 9665 9664
3226.3252 9660 9655 9651 9651 9655 9663 9671 9676 9675 9669 9663 9659 9660
3232.5928 9663 9667 9667 9664 9659 9654 9652 9653 9656 9660 9661 9661 9659
3238.8601 9656 9654 9652 9652 9654 9655 9657 9659 9660 9661 9662 9663 9661
3245.1277 9658 9654 9651 9650 9651 9654 9656 9658 9658 9657 9657 9658 9660
3251.3953 9661 9661 9659 9656 9653 9650 9650 9651 9654 9658 9661 9663 9664
3257.6628 9662 9659 9654 9648 9644 9642 9644 9649 9653 9657 9658 9658 9659
3263.9302 9663 9667 9671 9671 9668 9661 9655 9651 9652 9655 9658 9659 9658
3270.1978 9655 9653 9653 9655 9657 9659 9660 9660 9660 9661 9662 9663 9664
3276.4653 9664 9661 9656 9651 9648 9646 9648 9650 9654 9659 9664 9671 9678
3282.7329 9686 9692 9695 9694 9688 9680 9670 9662 9657 9654 9653 9654 9654
3289.0002 9655 9656 9659 9663 9667 9671 9673 9673 9672 9669 9667 9666 9667
3295.2678 9672 9679 9686 9690 9691 9687 9680 9671 9663 9659 9658 9660 9663
3301.5354 9665 9665 9663 9661 9659 9660 9663 9667 9670 9674 9676 9679 9682
3307.8030 9684 9685 9685 9686 9687 9689 9690 9687 9682 9675 9668 9665 9665
3314.0703 9668 9672 9675 9677 9678 9679 9679 9679 9679 9679 9679 9679 9679
3320.3379 9678 9678 9679 9683 9687 9690 9690 9688 9684 9681 9681 9681 9681
3326.6055 9678 9673 9667 9664 9665 9671 9677 9681 9681 9678 9674 9672 9671
3332.8730 9672 9674 9676 9679 9681 9683 9683 9679 9672 9665 9659 9657 9659
3339.1404 9664 9671 9677 9682 9685 9687 9687 9686 9683 9680 9678 9677 9678
3345.4080 9680 9683 9685 9687 9688 9688 9688 9688 9688 9690 9694 9699 9705
3351.6755 9710 9714 9716 9716 9715 9713 9712 9711 9713 9716 9720 9723 9726
3357.9431 9726 9725 9722 9720 9719 9720 9721 9724 9727 9731 9733 9735 9736
3364.2104 9735 9734 9732 9730 9730 9730 9729 9727 9722 9718 9714 9714 9717
3370.4780 9723 9729 9733 9735 9736 9735 9735 9734 9734 9733 9731 9729 9727
3376.7456 9726 9726 9728 9732 9738 9743 9749 9753 9757 9760 9762 9763 9762
3383.0132 9760 9759 9759 9761 9768 9777 9789 9802 9814 9823 9830 9832 9831
3389.2805 9829 9825 9823 9821 9821 9821 9822 9823 9825 9828 9833 9840 9846
3395.5481 9852 9857 9860 9862 9863 9864 9864 9862 9858 9853 9848 9845 9845
3401.8157 9847 9851 9856 9863 9868 9872 9871 9865 9856 9846 9838 9835 9836
3408.0833 9839 9843 9846 9848 9851 9854 9858 9862 9864 9864 9862 9857 9852
3414.3506 9848 9845 9843 9844 9845 9846 9847 9848 9850 9852 9855 9860 9864
3420.6182 9869 9873 9877 9881 9886 9891 9895 9897 9898 9898 9897 9896 9895
3426.8857 9893 9890 9886 9882 9880 9881 9885 9891 9899 9905 9908 9909 9908
3433.1533 9906 9906 9906 9908 9911 9914 9918 9920 9919 9914 9905 9894 9884
3439.4207 9877 9874 9876 9880 9883 9882 9878 9874 9871 9870 9873 9878 9884
3445.6882 9890 9896 9902 9907 9911 9913 9913 9914 9916 9920 9927 9936 9947
3451.9558 9959 9971 9982 9992 9999 10003 10003 9999 9993 9986 9979 9975 9972
3458.2234 9970 9969 9965 9959 9951 9944 9940 9941 9946 9954 9960 9964 9964
3464.4907 9961 9958 9956 9955 9954 9953 9951 9949 9945 9941 9936 9932 9930
3470.7583 9929 9930 9934 9938 9943 9947 9951 9953 9955 9957 9959 9961 9962
3477.0259 9961 9958 9954 9950 9947 9945 9944 9943 9942 9938 9934 9930 9927
3483.2935 9927 9929 9932 9936 9940 9943 9945 9948 9951 9955 9960 9962 9962
3489.5608 9958 9952 9943 9936 9930 9927 9927 9930 9935 9941 9947 9951 9952
3495.8284 9951 9947 9943 9940 9938 9938 9939 9939 9938 9935 9929 9923 9918
3502.0959 9917 9920 9927 9935 9939 9938 9932 9924 9916 9910 9909 9912 9918
3508.3635 9925 9931 9933 9933 9929 9923 9915 9907 9899 9893 9890 9889 9891
3514.6309 9894 9895 9896 9895 9893 9892 9891 9890 9888 9886 9884 9884 9885
3520.8984 9887 9888 9887 9884 9879 9875 9873 9874 9875 9877 9879 9880 9880
3527.1660 9881 9884 9889 9897 9905 9914 9919 9922 9921 9917 9913 9909 9907
3533.4336 9907 9910 9914 9919 9925 9930 9936 9940 9942 9941 9937 9933 9928
3539.7009 9924 9923 9923 9925 9928 9931 9936 9942 9950 9959 9967 9972 9973
3545.9685 9970 9966 9960 9956 9952 9949 9947 9946 9946 9948 9950 9954 9958
3552.2361 9964 9970 9975 9979 9980 9977 9972 9968 9966 9970 9978 9987 9995
3558.5037 10000 9999 9994 9986 9979 9975 9974 9974 9976 9978 9980 9982 9984
3564.7712 9986 9988 9989 9990 9989 9989 9989 9988 9987 9984 9979 9974 9970
3571.0386 9967 9967 9968 9972 9978 9985 9992 9998 10002 10003 10002 10000 9996
3577.3062 9992 9987 9981 9975 9970 9968 9970 9975 9981 9987 9991 9993 9993
3583.5737 9992 9990 9988 9988 9990 9994 10000 10005 10006 10001 9993 9983 9977
3589.8413 9974 9975 9978 9982 9986 9987 9985 9982 9980 9982 9987 9994 9999
3596.1086 10000 9997 9992 9986 9983 9984 9989 9996 10002 10006 10006 10003
3601.8940 9999 9996 9995 9995 9995 9994 9990 9983 9976 9971 9971 9976 9985
3608.1616 9994 9998 9997 9990 9983 9977 9973 9974 9979 9985 9989 9991 9990
3614.4292 9989 9991 9996 10003 10011 10017 10021 10021 10018 10013 10007 10002
3620.2146 9999 9998 9998 9997 9995 9993 9989 9984 9980 9977 9976 9976 9978
3626.4822 9984 9994 10009 10029 10046 10052 10043 10029 10017 10008 10002 9997
3632.2676 9993 9991 9991 9994 9997 9998 9996 9991 9986 9983 9984 9987 9992
3638.5349 9996 9996 9994 9992 9992 9994 9997 10000 10001 9999 9997 9995 9995
3644.8025 9998 10003 10008 10012 10014 10013 10011 10007 10000 9988 9972 9957
3650.5879 9952 9956 9966 9976 9984 9989 9991 9992 9994 9997 10002 10008 10011
3656.8555 10010 10005 9999 9994 9990 9989 9989 9990 9990 9987 9983 9978 9974
3663.1230 9972 9973 9975 9979 9983 9987 9990 9993 9998 10005 10014 10025 10033
3669.3904 10035 10029 10020 10013 10010 10009 10010 10010 10009 10006 10002
3674.6938 9996 9989 9984 9981 9980 9978 9976 9975 9973 9972 9972 9974 9977
3680.9612 9981 9985 9987 9987 9986 9984 9982 9982 9985 9990 9995 10001 10005
3687.2288 10007 10002 9993 9984 9977 9974 9976 9981 9989 9995 10000 10001
3693.0142 10000 9996 9991 9985 9980 9976 9974 9974 9976 9979 9983 9986 9988
3699.2817 9989 9989 9989 9988 9985 9980 9972 9966 9961 9959 9960 9963 9968
3705.5493 9974 9981 9987 9991 9995 9996 9994 9989 9984 9980 9976 9973 9971
3711.8167 9973 9978 9985 9990 9992 9990 9985 9976 9969 9964 9962 9962 9964
3718.0842 9967 9971 9976 9983 9989 9995 9997 9997 9995 9993 9993 9994 9992
3724.3518 9987 9977 9965 9954 9947 9947 9950 9955 9961 9966 9972 9978 9984
3730.6194 9988 9991 9992 9991 9990 9991 9995 10000 10007 10011 10009 10001
3736.4048 9992 9985 9982 9982 9983 9983 9979 9974 9968 9965 9965 9969 9975
3742.6721 9983 9992 10005 10023 10036 10036 10030 10021 10013 10005 9999 9996
3748.4575 9996 9999 10004 10005 10001 9993 9985 9981 9984 9993 10003 10010
3754.2429 10014 10016 10015 10012 10009 10005 10001 9997 9995 9994 9995 10000
3760.0283 10004 10007 10007 10004 10000 9995 9991 9986 9982 9978 9977 9978
3765.8137 9983 9988 9992 9992 9989 9982 9975 9970 9971 9977 9984 9989 9991
3772.0813 9991 9990 9988 9986 9983 9980 9976 9973 9972 9972 9975 9979 9982
3778.3489 9984 9983 9981 9979 9977 9976 9977 9979 9981 9983 9985 9985 9984
3784.6165 9981 9978 9976 9973 9972 9971 9971 9973 9975 9976 9975 9972 9966
3790.8838 9961 9958 9959 9962 9968 9974 9979 9982 9985 9986 9987 9987 9986
3797.1514 9984 9983 9981 9981 9980 9980 9979 9977 9975 9973 9973 9974 9976
3803.4189 9976 9976 9975 9975 9976 9978 9981 9981 9979 9974 9969 9966 9964
3809.6865 9965 9968 9972 9977 9981 9984 9985 9985 9984 9985 9986 9988 9990
3815.9539 9990 9987 9983 9981 9980 9982 9986 9993 10001 10005 10001 9991 9982
3822.2214 9977 9976 9978 9980 9981 9981 9980 9982 9985 9990 9994 9997 9996
3828.4890 9993 9989 9984 9980 9977 9976 9976 9977 9977 9977 9976 9975 9974
3834.7566 9976 9980 9987 9995 10003 10007 10005 9998 9992 9990 9993 9999 10003
3841.0239 10002 9998 9992 9987 9984 9984 9983 9982 9979 9974 9971 9968 9967
3847.2915 9968 9971 9976 9982 9989 9995 9999 10001 10000 9996 9992 9988 9986
3853.5591 9984 9979 9974 9972 9973 9977 9984 9991 9997 9999 9997 9992 9988
3859.8267 9985 9984 9985 9985 9981 9975 9966 9957 9950 9948 9951 9958 9964
3866.0940 9968 9972 9975 9978 9982 9989 9996 10003 10005 10002 9996 9989 9981
3872.3616 9974 9967 9961 9958 9957 9959 9963 9969 9976 9985 9994 10002 10007
3878.6292 10009 10008 10003 9995 9986 9979 9975 9973 9973 9974 9977 9982 9988
3884.8967 9994 9997 9994 9987 9977 9969 9962 9960 9962 9968 9977 9988 9996
3891.1641 9997 9992 9985 9980 9979 9981 9983 9985 9985 9982 9978 9975 9971
3897.4316 9969 9966 9962 9959 9959 9962 9967 9973 9978 9980 9978 9975 9972
3903.6992 9970 9968 9966 9965 9965 9966 9968 9972 9975 9979 9981 9983 9983
3909.9668 9982 9979 9976 9973 9971 9971 9972 9974 9976 9977 9978 9979 9981
3916.2341 9983 9982 9979 9974 9969 9966 9964 9964 9964 9965 9966 9967 9968
3922.5017 9970 9974 9979 9987 9996 10003 10006 10004 10000 9994 9989 9986 9985
3928.7693 9984 9982 9979 9974 9971 9969 9970 9972 9973 9974 9973 9970 9967
3935.0369 9964 9962 9962 9964 9967 9971 9975 9976 9975 9972 9967 9963 9959
3941.3042 9955 9953 9952 9954 9958 9964 9969 9972 9972 9970 9967 9963 9961
3947.5718 9960 9960 9962 9965 9969 9974 9979 9982 9982 9980 9979 9979 9981
3953.8394 9985 9987 9987 9983 9977 9972 9970 9972 9976 9982 9986 9987 9986
3960.1069 9982 9979 9975 9973 9972 9974 9977 9980 9982 9982 9981 9978 9975
3966.3743 9972 9971 9971 9971 9972 9973 9972 9970 9970 9972 9975 9979 9982
3972.6418 9982 9980 9977 9975 9973 9972 9970 9969 9968 9968 9969 9971 9971
3978.9094 9970 9968 9966 9963 9961 9960 9960 9962 9966 9970 9974 9976 9976
3985.1770 9974 9971 9968 9966 9965 9965 9966 9967 9968 9966 9963 9960 9958
3991.4443 9957 9957 9957 9956 9954 9953 9953 9957 9962 9968 9972 9973 9973
3997.7119 9973 9975 9977 9979 9979 9977
##END= 
