##TITLE= INCPOTASIOCITRATO
##JCAMP-DX= 4.24
##DATA TYPE= INFRARED SPECTRUM
##ORIGIN= JASCO
##OWNER= 
##DATE= 22/04/14
##TIME= 12:05:31
##SPECTROMETER/DATA SYSTEM= 
##RESOLUTION= 
##DELTAX=   0.48211674
##XUNITS= 1/CM
##YUNITS= TRANSMITTANCE
##XFACTOR= 1.00000
##YFACTOR= 0.0001
##FIRSTX=   599.7532
##LASTX=  4000.1226
##NPOINTS=     7054
##FIRSTY=      0.98490
##MAXY=      1.35896
##MINY=      0.83484
##XYDATA= (X++(Y..Y))
599.7532 9849 9855 9868 9887 9912 9944 9988 10043 10109 10182 10262 10344
605.5386 10426 10499 10553 10576 10565 10527 10479 10438 10416 10411 10414
610.8419 10412 10395 10364 10325 10289 10266 10263 10281 10317 10362 10406
616.1452 10443 10468 10485 10499 10516 10539 10569 10606 10651 10702 10760
621.4485 10827 10901 10982 11067 11149 11222 11280 11325 11361 11395 11431
626.7518 11473 11519 11571 11628 11684 11724 11731 11690 11601 11478 11348
632.0551 11235 11155 11104 11067 11021 10950 10851 10731 10609 10503 10424
637.3583 10374 10351 10350 10366 10394 10431 10469 10502 10526 10538 10542
642.6616 10544 10553 10576 10616 10667 10718 10755 10767 10753 10721 10685
647.9649 10657 10646 10651 10667 10684 10695 10696 10688 10676 10666 10663
653.2682 10668 10678 10689 10699 10710 10728 10757 10795 10833 10860 10866
658.5715 10849 10814 10774 10740 10718 10710 10714 10729 10748 10771 10795
663.8748 10821 10854 10896 10952 11027 11127 11259 11418 11543 11490 11276
669.1780 11109 11039 11022 11021 11021 11017 11017 11029 11055 11091 11132
674.4813 11174 11223 11284 11353 11416 11453 11450 11407 11337 11258 11188
679.7846 11132 11091 11059 11029 10993 10948 10893 10830 10764 10696 10630
685.0879 10570 10522 10485 10448 10396 10314 10205 10086 9988 9932 9919 9932
690.8733 9944 9934 9900 9856 9820 9809 9824 9856 9888 9901 9888 9849 9798 9755
697.6229 9731 9730 9746 9772 9806 9853 9918 9998 10080 10145 10176 10171 10142
703.8904 10108 10083 10070 10063 10051 10031 10004 9981 9974 9993 10040 10107
709.6758 10182 10250 10297 10318 10314 10298 10286 10291 10322 10374 10439
714.9791 10504 10559 10601 10634 10661 10686 10712 10742 10781 10830 10883
720.2824 10931 10965 10985 10998 11018 11051 11096 11146 11190 11223 11251
725.5857 11281 11318 11366 11424 11489 11559 11626 11679 11703 11692 11650
730.8890 11596 11549 11524 11519 11524 11522 11505 11474 11438 11412 11402
736.1923 11411 11432 11460 11490 11524 11569 11629 11706 11799 11902 12006
741.4955 12107 12200 12285 12363 12438 12517 12606 12711 12833 12968 13106
746.7988 13241 13365 13470 13546 13586 13590 13571 13551 13550 13568 13589
752.1021 13584 13534 13440 13324 13217 13142 13108 13107 13128 13158 13188
757.4054 13211 13215 13191 13136 13061 12990 12946 12947 12999 13095 13218
762.7087 13342 13442 13503 13524 13509 13463 13389 13289 13169 13036 12903
768.0120 12778 12664 12557 12452 12345 12237 12133 12038 11954 11877 11805
773.3152 11735 11669 11608 11556 11513 11480 11456 11439 11426 11414 11400
778.6185 11384 11368 11355 11350 11354 11362 11371 11376 11376 11375 11378
783.9218 11388 11407 11431 11456 11479 11498 11517 11539 11565 11593 11615
789.2251 11626 11621 11603 11580 11562 11556 11564 11582 11600 11610 11611
794.5284 11607 11607 11616 11633 11651 11661 11655 11635 11606 11579 11561
799.8317 11558 11568 11586 11609 11626 11630 11612 11569 11502 11420 11337
805.1349 11264 11208 11168 11144 11134 11137 11158 11195 11246 11302 11352
810.4382 11390 11414 11431 11451 11482 11527 11580 11631 11672 11698 11712
815.7415 11721 11734 11755 11783 11815 11846 11872 11892 11905 11911 11906
821.0448 11890 11861 11818 11767 11714 11664 11623 11592 11570 11555 11545
826.3481 11539 11538 11541 11547 11556 11567 11579 11593 11610 11629 11649
831.6514 11667 11682 11689 11687 11675 11654 11629 11604 11583 11572 11568
836.9547 11571 11575 11577 11574 11567 11557 11549 11546 11551 11561 11573
842.2579 11579 11576 11561 11538 11514 11492 11474 11459 11443 11422 11398
847.5612 11370 11339 11306 11271 11233 11195 11165 11148 11151 11177 11226
852.8645 11294 11374 11458 11538 11606 11659 11696 11721 11737 11749 11758
858.1678 11765 11769 11766 11755 11739 11719 11699 11681 11663 11644 11620
863.4711 11593 11566 11543 11529 11522 11522 11524 11530 11541 11559 11585
868.7744 11613 11640 11658 11666 11664 11657 11646 11634 11623 11614 11608
874.0776 11608 11613 11622 11635 11650 11664 11676 11684 11688 11690 11690
879.3809 11688 11686 11683 11682 11683 11688 11697 11705 11707 11699 11679
884.6842 11652 11625 11606 11597 11596 11598 11594 11582 11563 11541 11520
889.9875 11501 11481 11458 11431 11399 11366 11336 11311 11293 11280 11271
895.2908 11265 11262 11263 11269 11280 11294 11311 11328 11347 11369 11393
900.5941 11421 11452 11483 11511 11533 11548 11556 11559 11561 11563 11570
905.8973 11578 11585 11587 11582 11569 11551 11530 11507 11482 11453 11421
911.2006 11387 11351 11317 11284 11252 11220 11186 11152 11123 11102 11094
916.5039 11102 11126 11165 11217 11278 11347 11421 11497 11572 11645 11711
921.8072 11772 11827 11877 11923 11963 11993 12013 12024 12031 12041 12059
927.1105 12083 12108 12124 12125 12109 12080 12046 12012 11985 11965 11951
932.4138 11939 11927 11913 11897 11877 11856 11833 11812 11794 11781 11771
937.7170 11761 11747 11727 11702 11674 11649 11627 11609 11594 11580 11564
943.0203 11548 11533 11521 11515 11516 11523 11534 11546 11558 11568 11575
948.3236 11579 11577 11569 11554 11534 11512 11489 11469 11450 11432 11414
953.6269 11397 11382 11369 11358 11349 11340 11330 11317 11303 11288 11273
958.9302 11262 11253 11245 11237 11225 11211 11195 11182 11173 11170 11172
964.2335 11175 11177 11175 11171 11166 11162 11159 11157 11154 11150 11147
969.5367 11145 11145 11147 11149 11149 11147 11141 11133 11122 11112 11105
974.8400 11100 11099 11100 11098 11093 11083 11069 11055 11044 11036 11031
980.1433 11024 11015 11002 10987 10970 10953 10934 10912 10887 10857 10825
985.4466 10793 10762 10732 10703 10676 10647 10616 10582 10546 10509 10474
990.7499 10442 10413 10389 10368 10352 10342 10340 10350 10372 10408 10455
996.0532 10513 10579 10652 10729 10806 10883 10957 11027 11092 11151 11204
1001.3564 11248 11285 11315 11341 11364 11386 11406 11423 11439 11453 11468
1006.6597 11484 11500 11514 11525 11534 11542 11551 11563 11579 11599 11621
1011.9630 11642 11659 11667 11663 11648 11625 11598 11573 11555 11545 11539
1017.2663 11533 11525 11514 11500 11487 11478 11474 11474 11476 11477 11475
1022.5696 11471 11465 11459 11455 11452 11451 11451 11451 11449 11443 11436
1027.8729 11428 11421 11417 11415 11413 11411 11407 11400 11390 11379 11366
1033.1761 11353 11340 11327 11316 11307 11300 11295 11293 11292 11289 11285
1038.4795 11276 11263 11249 11236 11226 11220 11215 11209 11201 11191 11179
1043.7827 11167 11155 11143 11129 11114 11099 11084 11069 11055 11040 11023
1049.0861 11004 10982 10960 10939 10920 10906 10896 10888 10879 10866 10846
1054.3893 10819 10787 10755 10727 10706 10691 10679 10665 10645 10617 10583
1059.6926 10544 10506 10472 10443 10417 10392 10363 10327 10284 10234 10185
1064.9958 10140 10106 10082 10067 10059 10054 10056 10066 10087 10117 10150
1070.2992 10180 10200 10206 10202 10191 10181 10176 10181 10198 10231 10285
1075.6024 10362 10462 10581 10712 10846 10976 11094 11197 11283 11350 11402
1080.9058 11443 11479 11514 11547 11575 11593 11596 11585 11563 11537 11513
1086.2090 11495 11487 11488 11492 11491 11475 11433 11365 11279 11191 11113
1091.5123 11052 11001 10947 10874 10781 10676 10579 10510 10475 10470 10473
1096.8156 10462 10424 10357 10272 10185 10106 10036 9970 9902 9830 9755 9679
1102.6010 9606 9535 9466 9398 9334 9277 9230 9193 9164 9141 9124 9112 9109
1108.8685 9116 9137 9171 9219 9278 9346 9420 9497 9578 9663 9755 9853 9958
1115.1360 10066 10173 10276 10374 10467 10558 10651 10745 10842 10940 11034
1120.4393 11123 11203 11273 11334 11389 11443 11498 11557 11619 11680 11738
1125.7426 11791 11838 11882 11923 11961 11993 12017 12031 12039 12042 12045
1131.0459 12048 12049 12046 12036 12023 12008 11998 11992 11989 11983 11970
1136.3491 11948 11919 11886 11853 11820 11790 11763 11739 11719 11701 11684
1141.6525 11665 11642 11615 11587 11560 11535 11513 11492 11471 11446 11417
1146.9557 11384 11346 11306 11265 11226 11192 11163 11140 11123 11110 11101
1152.2590 11093 11084 11074 11061 11047 11033 11019 11007 10995 10982 10970
1157.5623 10958 10947 10940 10937 10939 10944 10951 10958 10963 10964 10962
1162.8656 10958 10954 10952 10954 10958 10964 10967 10966 10962 10956 10952
1168.1688 10951 10954 10960 10968 10974 10979 10982 10984 10985 10986 10985
1173.4722 10985 10985 10987 10992 10999 11008 11015 11020 11021 11021 11019
1178.7754 11017 11012 11005 10994 10981 10966 10953 10945 10940 10939 10938
1184.0787 10937 10934 10929 10923 10918 10914 10912 10911 10910 10908 10904
1189.3820 10898 10891 10885 10878 10870 10861 10850 10838 10825 10812 10803
1194.6853 10795 10789 10783 10777 10770 10764 10757 10749 10741 10731 10719
1199.9885 10708 10698 10689 10681 10673 10665 10655 10644 10632 10620 10609
1205.2919 10600 10594 10591 10590 10588 10584 10578 10570 10562 10555 10551
1210.5951 10547 10544 10541 10537 10534 10531 10529 10527 10527 10529 10533
1215.8984 10538 10545 10549 10551 10550 10546 10541 10538 10536 10535 10534
1221.2017 10531 10528 10527 10529 10536 10546 10558 10570 10581 10590 10598
1226.5050 10606 10615 10625 10636 10647 10657 10667 10677 10688 10700 10714
1231.8082 10728 10742 10754 10765 10773 10780 10785 10791 10797 10803 10809
1237.1116 10815 10822 10828 10835 10842 10850 10858 10866 10873 10880 10886
1242.4148 10892 10898 10905 10912 10920 10929 10939 10951 10965 10980 10995
1247.7181 11009 11024 11040 11057 11074 11092 11109 11127 11147 11170 11196
1253.0214 11225 11256 11288 11321 11357 11394 11431 11467 11499 11525 11547
1258.3247 11564 11578 11589 11596 11598 11592 11576 11551 11516 11474 11426
1263.6279 11376 11327 11286 11261 11256 11271 11296 11313 11300 11246 11159
1268.9313 11062 10977 10919 10890 10883 10885 10886 10881 10871 10856 10840
1274.2345 10821 10797 10766 10731 10692 10654 10619 10586 10555 10523 10487
1279.5378 10447 10400 10349 10294 10237 10178 10118 10057 9996 9935 9877 9824
1285.3232 9775 9733 9697 9667 9642 9622 9607 9597 9590 9587 9587 9589 9594
1291.5907 9602 9612 9625 9641 9660 9680 9705 9733 9767 9805 9843 9879 9910
1297.8583 9933 9949 9959 9963 9961 9954 9943 9930 9917 9906 9898 9893 9890
1304.1257 9888 9887 9887 9888 9889 9889 9886 9881 9873 9864 9855 9846 9836
1310.3933 9827 9816 9804 9789 9773 9756 9740 9725 9711 9700 9690 9682 9677
1316.6608 9675 9676 9681 9688 9697 9707 9718 9730 9741 9752 9761 9764 9762
1322.9283 9755 9744 9732 9721 9714 9710 9707 9705 9704 9704 9706 9712 9720
1329.1958 9728 9736 9741 9744 9745 9743 9738 9730 9720 9710 9700 9689 9678
1335.4634 9667 9654 9641 9631 9624 9623 9625 9632 9643 9659 9678 9701 9728
1341.7308 9757 9790 9825 9862 9900 9937 9972 10004 10032 10056 10076 10093
1347.5162 10107 10119 10129 10138 10146 10155 10163 10170 10176 10181 10185
1352.8196 10187 10188 10187 10185 10181 10177 10174 10173 10172 10172 10172
1358.1228 10171 10169 10166 10162 10157 10151 10145 10138 10129 10118 10105
1363.4261 10091 10079 10069 10059 10051 10043 10034 10023 10011 9997 9982 9967
1369.2115 9954 9943 9933 9925 9917 9908 9898 9887 9874 9857 9836 9814 9794
1375.4790 9778 9764 9752 9739 9723 9705 9687 9669 9653 9639 9624 9608 9591
1381.7466 9573 9554 9536 9520 9506 9494 9483 9473 9461 9444 9419 9386 9352
1388.0140 9324 9304 9289 9276 9263 9250 9239 9232 9231 9233 9235 9235 9232
1394.2816 9225 9220 9220 9228 9244 9264 9286 9309 9333 9358 9388 9420 9456
1400.5491 9493 9531 9568 9605 9639 9671 9700 9726 9749 9769 9787 9804 9821
1406.8167 9838 9856 9874 9893 9911 9929 9944 9957 9966 9972 9975 9978 9981
1413.0841 9986 9991 9995 9997 9997 9994 9991 9988 9986 9985 9983 9977 9967
1419.3517 9962 9971 9994 10026 10062 10099 10136 10172 10206 10238 10269 10300
1425.1371 10329 10356 10381 10404 10426 10447 10466 10483 10493 10497 10496
1430.4403 10495 10498 10503 10509 10512 10514 10515 10518 10525 10535 10543
1435.7437 10544 10531 10508 10491 10486 10490 10498 10504 10508 10508 10505
1441.0469 10501 10495 10489 10481 10473 10463 10453 10444 10438 10435 10434
1446.3502 10434 10432 10428 10422 10419 10420 10425 10432 10438 10442 10441
1451.6534 10437 10431 10425 10423 10422 10424 10426 10429 10432 10434 10433
1456.9568 10428 10420 10411 10404 10401 10402 10405 10410 10415 10420 10425
1462.2600 10429 10431 10432 10430 10426 10419 10412 10409 10408 10409 10410
1467.5634 10410 10408 10407 10406 10406 10407 10410 10411 10410 10402 10389
1472.8666 10376 10370 10370 10372 10375 10374 10370 10363 10357 10355 10355
1478.1699 10357 10360 10362 10363 10363 10362 10361 10360 10361 10364 10369
1483.4731 10375 10382 10390 10397 10403 10410 10417 10425 10434 10444 10455
1488.7765 10466 10476 10488 10502 10521 10540 10560 10580 10599 10617 10635
1494.0797 10650 10660 10661 10649 10626 10602 10584 10570 10553 10527 10495
1499.3831 10463 10440 10426 10421 10418 10418 10418 10421 10428 10438 10451
1504.6863 10466 10480 10488 10482 10461 10444 10440 10444 10454 10466 10479
1509.9896 10493 10506 10516 10522 10526 10529 10534 10543 10557 10572 10587
1515.2928 10596 10597 10587 10572 10567 10579 10601 10628 10655 10678 10693
1520.5962 10688 10660 10628 10622 10637 10662 10686 10705 10716 10720 10719
1525.8994 10718 10716 10712 10702 10685 10666 10648 10634 10625 10615 10605
1531.2028 10591 10572 10541 10488 10409 10318 10242 10194 10167 10150 10138
1536.5060 10128 10121 10116 10106 10077 10002 9884 9784 9743 9734 9724 9702
1542.2914 9672 9645 9623 9605 9584 9555 9522 9494 9477 9469 9466 9466 9464
1548.5590 9460 9451 9436 9418 9404 9398 9399 9404 9408 9407 9394 9366 9335
1554.8264 9317 9316 9327 9346 9367 9387 9399 9373 9263 9127 9073 9075 9095
1561.0940 9119 9144 9166 9185 9198 9202 9196 9180 9160 9146 9141 9145 9156
1567.3615 9168 9177 9171 9140 9081 9021 8987 8979 8983 8988 8987 8982 8976
1573.6290 8973 8974 8973 8951 8882 8761 8639 8568 8544 8539 8535 8525 8508
1579.8965 8486 8464 8444 8427 8413 8400 8387 8376 8365 8356 8350 8348 8353
1586.1641 8365 8384 8409 8438 8471 8505 8542 8582 8625 8670 8717 8765 8812
1592.4316 8859 8903 8943 8977 9005 9027 9047 9064 9080 9095 9107 9116 9123
1598.6991 9128 9132 9136 9140 9146 9153 9163 9176 9191 9208 9228 9249 9269
1604.9667 9288 9305 9320 9333 9345 9359 9374 9390 9405 9419 9432 9446 9461
1611.2341 9478 9496 9513 9530 9547 9564 9584 9607 9632 9655 9673 9681 9685
1617.5017 9695 9714 9740 9769 9799 9826 9850 9872 9892 9913 9934 9955 9975
1623.7692 9993 10010 10030 10050 10071 10092 10110 10128 10144 10162 10181
1629.0725 10199 10214 10228 10239 10250 10263 10277 10292 10307 10320 10328
1634.3757 10329 10317 10295 10279 10281 10297 10318 10340 10358 10370 10377
1639.6791 10380 10383 10387 10394 10401 10402 10397 10385 10369 10354 10342
1644.9823 10337 10343 10360 10382 10400 10408 10407 10405 10402 10401 10401
1650.2856 10402 10405 10409 10414 10415 10398 10363 10349 10360 10377 10393
1655.5889 10407 10417 10425 10431 10435 10439 10441 10443 10445 10446 10449
1660.8922 10452 10455 10456 10456 10455 10454 10455 10459 10464 10470 10477
1666.1954 10484 10491 10497 10501 10503 10503 10504 10507 10511 10515 10516
1671.4988 10515 10515 10518 10525 10533 10540 10544 10540 10533 10530 10536
1676.8020 10547 10560 10571 10579 10583 10581 10578 10576 10580 10589 10603
1682.1053 10620 10638 10657 10667 10655 10629 10614 10612 10616 10620 10624
1687.4086 10626 10625 10622 10616 10611 10606 10604 10605 10609 10613 10619
1692.7119 10626 10635 10645 10655 10661 10653 10624 10585 10562 10563 10578
1698.0151 10600 10623 10641 10641 10600 10540 10516 10523 10542 10560 10575
1703.3185 10587 10596 10603 10609 10615 10619 10621 10621 10623 10626 10630
1708.6217 10635 10640 10644 10649 10654 10660 10668 10676 10683 10688 10692
1713.9250 10693 10692 10690 10690 10692 10694 10690 10676 10652 10632 10626
1719.2283 10629 10637 10644 10649 10653 10655 10655 10652 10647 10641 10635
1724.5316 10629 10625 10621 10618 10615 10612 10610 10608 10605 10599 10591
1729.8348 10581 10573 10568 10568 10570 10571 10569 10558 10533 10506 10494
1735.1382 10494 10499 10505 10509 10513 10514 10513 10508 10499 10486 10474
1740.4414 10466 10464 10463 10462 10459 10452 10442 10431 10422 10415 10411
1745.7448 10409 10408 10408 10406 10402 10394 10385 10378 10376 10377 10380
1751.0480 10383 10383 10382 10381 10379 10378 10376 10374 10373 10371 10371
1756.3513 10371 10370 10368 10366 10363 10362 10360 10359 10357 10353 10349
1761.6545 10344 10341 10339 10339 10340 10342 10345 10349 10353 10357 10359
1766.9579 10357 10351 10342 10336 10334 10336 10341 10346 10350 10352 10352
1772.2611 10352 10354 10356 10357 10355 10352 10345 10338 10333 10331 10333
1777.5645 10338 10345 10351 10354 10354 10351 10345 10338 10334 10333 10335
1782.8677 10339 10345 10350 10355 10357 10355 10353 10350 10350 10351 10354
1788.1710 10357 10359 10360 10358 10355 10351 10348 10345 10343 10339 10338
1793.4742 10338 10342 10348 10356 10362 10365 10365 10362 10358 10354 10349
1798.7776 10344 10341 10341 10344 10347 10348 10345 10340 10335 10333 10334
1804.0808 10338 10341 10344 10345 10346 10348 10351 10355 10359 10361 10360
1809.3842 10357 10352 10348 10346 10347 10351 10355 10357 10356 10352 10346
1814.6874 10342 10340 10341 10346 10352 10360 10367 10373 10378 10381 10383
1819.9907 10382 10378 10373 10366 10359 10355 10353 10355 10359 10363 10367
1825.2939 10371 10374 10377 10380 10381 10381 10377 10370 10361 10355 10354
1830.5973 10358 10362 10364 10363 10359 10354 10349 10346 10344 10346 10349
1835.9005 10353 10358 10362 10364 10364 10362 10360 10359 10361 10364 10368
1841.2039 10371 10374 10376 10375 10369 10358 10344 10332 10328 10331 10339
1846.5071 10349 10361 10371 10381 10387 10391 10391 10390 10388 10387 10387
1851.8104 10390 10392 10392 10387 10378 10366 10355 10348 10348 10354 10363
1857.1136 10373 10380 10382 10379 10374 10370 10369 10372 10378 10386 10391
1862.4170 10393 10394 10394 10395 10399 10405 10412 10416 10418 10417 10415
1867.7202 10413 10413 10413 10413 10411 10407 10402 10397 10393 10390 10387
1873.0236 10386 10387 10391 10397 10406 10415 10420 10420 10414 10403 10391
1878.3268 10380 10373 10371 10372 10376 10380 10384 10386 10387 10388 10388
1883.6301 10388 10387 10385 10384 10385 10389 10394 10400 10405 10409 10410
1888.9333 10410 10412 10416 10420 10423 10422 10416 10406 10395 10386 10383
1894.2367 10385 10392 10401 10408 10412 10413 10411 10408 10404 10402 10401
1899.5399 10401 10402 10400 10395 10386 10377 10370 10366 10361 10355 10345
1904.8433 10337 10334 10340 10356 10378 10399 10416 10426 10430 10431 10433
1910.1465 10436 10437 10433 10421 10401 10376 10352 10335 10329 10334 10346
1915.4498 10360 10373 10385 10395 10401 10402 10399 10394 10392 10396 10406
1920.7531 10420 10433 10440 10440 10434 10427 10422 10420 10421 10421 10419
1926.0564 10415 10407 10396 10384 10374 10369 10370 10378 10387 10393 10393
1931.3596 10387 10379 10375 10376 10383 10390 10394 10395 10398 10409 10432
1936.6630 10461 10486 10491 10470 10427 10375 10329 10303 10296 10306 10324
1941.9662 10345 10367 10389 10414 10437 10452 10451 10432 10396 10354 10316
1947.2695 10292 10284 10290 10304 10320 10336 10350 10362 10374 10387 10397
1952.5728 10402 10398 10386 10372 10367 10378 10409 10452 10492 10517 10520
1957.8761 10501 10470 10436 10409 10394 10393 10403 10420 10435 10440 10433
1963.1793 10412 10384 10355 10335 10331 10348 10387 10439 10486 10509 10500
1968.4827 10465 10424 10397 10395 10417 10447 10469 10471 10458 10443 10438
1973.7859 10446 10453 10442 10403 10347 10296 10276 10294 10338 10378 10391
1979.0892 10371 10335 10306 10301 10325 10369 10420 10468 10507 10534 10545
1984.3925 10538 10511 10468 10422 10383 10363 10362 10373 10389 10399 10403
1989.6958 10401 10400 10404 10415 10427 10432 10422 10397 10363 10333 10320
1994.9990 10331 10365 10407 10441 10452 10437 10404 10369 10344 10336 10342
2000.3024 10354 10363 10362 10348 10324 10295 10267 10246 10241 10255 10291
2005.6056 10347 10415 10481 10529 10544 10521 10468 10406 10357 10337 10352
2010.9089 10393 10440 10473 10477 10455 10417 10380 10352 10337 10327 10320
2016.2122 10314 10314 10322 10335 10341 10332 10307 10278 10266 10288 10350
2021.5155 10441 10538 10610 10639 10621 10571 10511 10460 10428 10415 10414
2026.8187 10417 10416 10412 10409 10413 10427 10453 10487 10522 10548 10557
2032.1221 10544 10508 10455 10399 10353 10331 10337 10367 10406 10438 10448
2037.4253 10431 10390 10339 10293 10265 10264 10288 10330 10376 10414 10437
2042.7286 10446 10446 10447 10451 10459 10466 10469 10465 10455 10441 10424
2048.0320 10406 10390 10379 10380 10390 10406 10422 10431 10434 10434 10435
2053.3352 10437 10437 10430 10414 10393 10370 10351 10339 10333 10333 10340
2058.6384 10354 10373 10394 10412 10424 10430 10432 10433 10430 10417 10389
2063.9417 10347 10301 10265 10251 10262 10293 10330 10364 10389 10407 10420
2069.2451 10433 10446 10458 10467 10471 10470 10464 10454 10444 10435 10430
2074.5483 10429 10432 10435 10435 10431 10422 10412 10404 10400 10402 10409
2079.8516 10418 10424 10425 10420 10411 10403 10401 10404 10414 10425 10436
2085.1548 10442 10444 10443 10440 10436 10431 10426 10422 10420 10422 10428
2090.4583 10437 10445 10451 10451 10446 10435 10421 10407 10397 10394 10398
2095.7615 10408 10419 10424 10422 10415 10408 10405 10408 10418 10434 10451
2101.0647 10467 10475 10470 10451 10420 10387 10362 10355 10365 10383 10399
2106.3679 10404 10399 10390 10386 10390 10398 10403 10398 10380 10358 10342
2111.6714 10341 10357 10384 10412 10432 10441 10441 10438 10437 10437 10437
2116.9746 10433 10423 10410 10399 10395 10399 10410 10423 10433 10436 10430
2122.2778 10419 10408 10401 10402 10407 10414 10417 10415 10408 10403 10404
2127.5811 10417 10438 10461 10473 10469 10446 10414 10386 10375 10384 10410
2132.8845 10440 10462 10470 10465 10458 10458 10470 10490 10509 10518 10509
2138.1877 10485 10457 10436 10434 10450 10476 10495 10495 10471 10430 10388
2143.4910 10359 10351 10359 10375 10388 10397 10407 10429 10469 10521 10574
2148.7942 10613 10628 10618 10587 10541 10482 10414 10344 10285 10250 10242
2154.0977 10255 10271 10270 10248 10213 10190 10196 10238 10299 10356 10392
2159.4009 10409 10427 10461 10516 10581 10636 10670 10676 10661 10631 10593
2164.7041 10549 10499 10447 10401 10373 10372 10400 10447 10492 10511 10491
2170.0073 10435 10360 10289 10244 10232 10252 10293 10343 10391 10429 10458
2175.3108 10481 10505 10534 10562 10578 10571 10539 10493 10453 10435 10443
2180.6140 10466 10490 10507 10518 10532 10556 10582 10594 10574 10519 10442
2185.9172 10364 10301 10256 10224 10205 10205 10247 10348 10512 10717 10918
2191.2205 11065 11120 11084 10982 10847 10706 10571 10449 10348 10280 10256
2196.5239 10276 10327 10387 10437 10465 10477 10482 10491 10502 10510 10507
2201.8271 10491 10471 10454 10445 10445 10445 10442 10434 10425 10422 10427
2207.1304 10438 10451 10463 10472 10476 10479 10483 10492 10509 10532 10554
2212.4336 10566 10561 10536 10500 10465 10443 10437 10442 10448 10445 10434
2217.7371 10421 10419 10432 10456 10481 10494 10490 10476 10465 10468 10485
2223.0403 10508 10523 10523 10509 10490 10476 10472 10476 10486 10496 10504
2228.3435 10508 10505 10492 10470 10442 10417 10402 10401 10415 10438 10464
2233.6467 10486 10498 10500 10492 10480 10467 10457 10448 10441 10434 10427
2238.9502 10423 10421 10423 10425 10426 10426 10425 10426 10429 10433 10433
2244.2534 10426 10414 10401 10390 10386 10389 10394 10400 10406 10413 10425
2249.5566 10444 10467 10488 10502 10503 10489 10465 10440 10422 10417 10425
2254.8599 10440 10456 10468 10473 10470 10461 10447 10428 10408 10394 10390
2260.1633 10399 10417 10438 10452 10455 10446 10431 10418 10412 10417 10431
2265.4666 10452 10472 10486 10492 10492 10489 10486 10484 10480 10473 10460
2270.7698 10446 10433 10425 10424 10428 10433 10437 10438 10438 10438 10438
2276.0730 10439 10441 10445 10452 10462 10474 10486 10495 10500 10501 10501
2281.3765 10499 10496 10491 10483 10472 10460 10450 10445 10446 10452 10461
2286.6797 10470 10477 10481 10482 10481 10479 10477 10476 10478 10481 10484
2291.9829 10485 10483 10480 10475 10473 10473 10476 10480 10482 10479 10475
2297.2861 10470 10468 10471 10478 10486 10492 10494 10493 10491 10490 10489
2302.5896 10487 10484 10481 10477 10476 10480 10489 10498 10507 10511 10511
2307.8928 10508 10505 10503 10504 10506 10508 10510 10511 10511 10511 10511
2313.1960 10513 10516 10518 10518 10515 10507 10496 10487 10483 10487 10498
2318.4993 10515 10531 10543 10548 10546 10539 10528 10516 10503 10494 10490
2323.8027 10492 10499 10509 10518 10525 10528 10528 10527 10527 10529 10534
2329.1060 10540 10544 10544 10539 10530 10523 10521 10526 10537 10550 10561
2334.4092 10569 10573 10573 10567 10554 10533 10507 10481 10463 10458 10465
2339.7124 10481 10499 10512 10518 10519 10518 10517 10517 10515 10514 10513
2345.0159 10515 10518 10522 10524 10525 10525 10527 10531 10538 10548 10559
2350.3191 10570 10579 10583 10581 10573 10562 10554 10553 10559 10566 10569
2355.6223 10561 10545 10528 10521 10526 10544 10568 10591 10609 10622 10629
2360.9255 10632 10633 10631 10627 10618 10601 10575 10542 10508 10479 10460
2366.2290 10452 10453 10458 10464 10470 10480 10495 10517 10542 10564 10578
2371.5322 10581 10573 10560 10547 10537 10531 10529 10528 10529 10532 10536
2376.8354 10541 10544 10544 10542 10537 10531 10526 10522 10521 10522 10525
2382.1387 10530 10533 10535 10533 10530 10526 10522 10521 10521 10523 10526
2387.4421 10530 10537 10545 10555 10562 10565 10563 10557 10549 10542 10537
2392.7454 10535 10537 10541 10547 10554 10560 10564 10564 10560 10554 10550
2398.0486 10549 10553 10559 10566 10570 10572 10570 10568 10565 10564 10563
2403.3518 10564 10564 10565 10566 10568 10570 10570 10567 10561 10554 10550
2408.6553 10551 10556 10563 10569 10572 10571 10569 10568 10568 10569 10568
2413.9585 10566 10562 10559 10558 10561 10567 10572 10576 10576 10573 10569
2419.2617 10566 10564 10564 10565 10566 10567 10568 10568 10568 10569 10570
2424.5649 10572 10575 10579 10581 10581 10580 10579 10578 10579 10581 10584
2429.8684 10586 10588 10588 10586 10583 10578 10574 10570 10567 10566 10565
2435.1716 10565 10567 10572 10581 10593 10605 10614 10615 10609 10597 10581
2440.4749 10565 10552 10546 10548 10556 10569 10580 10587 10588 10584 10578
2445.7781 10574 10576 10582 10592 10602 10610 10614 10615 10612 10609 10604
2451.0815 10599 10594 10587 10582 10579 10580 10583 10588 10592 10594 10593
2456.3848 10592 10591 10593 10595 10597 10598 10597 10595 10592 10591 10591
2461.6880 10592 10596 10600 10603 10604 10602 10599 10594 10590 10588 10587
2466.9912 10588 10591 10595 10599 10603 10604 10604 10604 10604 10604 10605
2472.2947 10606 10607 10607 10607 10608 10609 10608 10605 10599 10591 10585
2477.5979 10583 10585 10590 10595 10597 10595 10590 10585 10584 10587 10593
2482.9011 10600 10606 10612 10618 10622 10623 10620 10614 10607 10602 10602
2488.2043 10605 10609 10610 10608 10602 10597 10594 10595 10600 10608 10617
2493.5078 10627 10634 10639 10639 10634 10627 10619 10612 10606 10603 10603
2498.8110 10606 10610 10615 10618 10619 10618 10617 10617 10619 10624 10630
2504.1143 10635 10636 10633 10628 10622 10619 10621 10625 10629 10630 10626
2509.4175 10619 10612 10605 10601 10600 10599 10599 10600 10601 10605 10610
2514.7209 10616 10619 10620 10617 10613 10611 10611 10614 10616 10618 10618
2520.0242 10617 10617 10619 10623 10625 10625 10621 10615 10609 10608 10611
2525.3274 10620 10630 10640 10645 10646 10642 10637 10632 10630 10630 10631
2530.6306 10634 10636 10638 10638 10638 10639 10641 10644 10648 10653 10655
2535.9341 10655 10652 10647 10643 10640 10637 10635 10633 10631 10631 10632
2541.2373 10635 10639 10644 10650 10656 10664 10672 10677 10677 10670 10658
2546.5405 10645 10634 10629 10629 10631 10633 10634 10634 10636 10641 10647
2551.8438 10653 10656 10656 10654 10652 10652 10654 10658 10660 10659 10654
2557.1472 10646 10638 10632 10630 10633 10637 10641 10643 10642 10638 10634
2562.4504 10629 10625 10623 10624 10628 10635 10643 10649 10651 10649 10646
2567.7537 10643 10642 10644 10646 10648 10648 10646 10642 10637 10632 10629
2573.0569 10629 10631 10635 10639 10641 10643 10644 10647 10651 10655 10657
2578.3604 10655 10649 10642 10635 10629 10625 10622 10621 10620 10622 10625
2583.6636 10630 10634 10638 10641 10644 10647 10651 10654 10656 10657 10657
2588.9668 10656 10655 10654 10653 10652 10649 10647 10646 10646 10647 10648
2594.2703 10648 10647 10645 10644 10646 10651 10657 10663 10667 10668 10666
2599.5735 10663 10660 10658 10655 10654 10654 10655 10656 10658 10659 10658
2604.8767 10656 10654 10652 10653 10655 10659 10662 10664 10663 10661 10658
2610.1799 10655 10653 10652 10653 10655 10659 10664 10670 10674 10676 10674
2615.4834 10669 10662 10655 10650 10648 10648 10651 10653 10655 10656 10656
2620.7866 10658 10661 10665 10669 10673 10676 10677 10677 10676 10674 10670
2626.0898 10666 10662 10659 10657 10657 10658 10660 10662 10662 10662 10661
2631.3931 10660 10661 10662 10664 10666 10666 10665 10664 10664 10665 10666
2636.6965 10668 10669 10669 10667 10664 10660 10657 10655 10654 10656 10659
2641.9998 10662 10664 10665 10666 10667 10670 10673 10676 10677 10675 10672
2647.3030 10669 10668 10669 10670 10672 10673 10672 10670 10668 10666 10664
2652.6062 10662 10659 10657 10656 10655 10655 10655 10656 10657 10659 10661
2657.9097 10663 10665 10664 10661 10657 10651 10647 10644 10643 10643 10644
2663.2129 10645 10646 10648 10650 10651 10651 10650 10647 10645 10643 10642
2668.5161 10643 10645 10647 10649 10649 10649 10648 10646 10644 10641 10639
2673.8193 10639 10640 10643 10647 10651 10653 10654 10652 10650 10647 10644
2679.1228 10642 10640 10638 10635 10634 10634 10636 10639 10642 10644 10644
2684.4260 10643 10642 10641 10642 10644 10647 10649 10650 10650 10648 10646
2689.7292 10645 10644 10642 10641 10639 10637 10634 10633 10634 10636 10640
2695.0325 10643 10644 10643 10640 10636 10632 10629 10627 10627 10629 10633
2700.3359 10637 10641 10643 10642 10640 10638 10637 10639 10641 10643 10642
2705.6392 10640 10637 10635 10634 10636 10638 10639 10640 10640 10641 10642
2710.9424 10644 10644 10643 10640 10638 10637 10640 10644 10649 10652 10652
2716.2456 10649 10645 10642 10641 10642 10644 10645 10644 10642 10639 10637
2721.5491 10637 10638 10639 10639 10638 10636 10636 10636 10638 10640 10641
2726.8523 10642 10642 10642 10640 10639 10638 10638 10639 10642 10645 10647
2732.1555 10649 10650 10653 10656 10662 10669 10674 10676 10673 10664 10650
2737.4587 10635 10623 10617 10617 10624 10632 10638 10642 10643 10645 10650
2742.7622 10657 10665 10670 10671 10667 10661 10655 10651 10650 10652 10654
2748.0654 10656 10659 10663 10667 10670 10673 10673 10672 10668 10664 10661
2753.3687 10659 10658 10658 10659 10659 10659 10659 10659 10659 10660 10661
2758.6719 10662 10662 10663 10666 10670 10675 10680 10683 10682 10679 10674
2763.9753 10671 10670 10672 10675 10677 10676 10672 10667 10662 10659 10658
2769.2786 10658 10657 10655 10653 10651 10652 10654 10658 10662 10665 10666
2774.5818 10666 10665 10663 10661 10658 10657 10657 10659 10661 10663 10664
2779.8850 10664 10663 10661 10659 10657 10655 10653 10651 10648 10647 10645
2785.1885 10645 10645 10645 10646 10646 10647 10647 10647 10647 10646 10645
2790.4917 10643 10641 10639 10638 10637 10638 10639 10641 10642 10642 10641
2795.7949 10639 10636 10633 10630 10627 10625 10623 10620 10616 10613 10610
2801.0981 10610 10612 10616 10621 10624 10625 10624 10621 10618 10616 10616
2806.4016 10618 10619 10620 10620 10620 10618 10616 10615 10613 10612 10610
2811.7048 10608 10604 10600 10595 10590 10587 10586 10587 10590 10593 10597
2817.0081 10602 10605 10606 10606 10603 10599 10594 10591 10590 10592 10595
2822.3113 10598 10600 10599 10596 10592 10588 10585 10586 10588 10591 10593
2827.6147 10594 10593 10592 10589 10588 10588 10588 10588 10589 10588 10587
2832.9180 10586 10585 10585 10587 10591 10596 10599 10600 10598 10594 10589
2838.2212 10586 10585 10586 10587 10589 10590 10591 10589 10587 10585 10585
2843.5244 10587 10592 10599 10604 10608 10607 10604 10600 10596 10594 10593
2848.8279 10594 10595 10596 10597 10598 10598 10598 10597 10595 10595 10596
2854.1311 10599 10604 10608 10612 10612 10611 10608 10605 10602 10602 10604
2859.4343 10608 10612 10616 10619 10619 10619 10618 10618 10620 10623 10625
2864.7375 10627 10627 10625 10623 10622 10621 10621 10622 10622 10623 10623
2870.0410 10623 10624 10624 10623 10623 10623 10624 10624 10625 10625 10625
2875.3442 10624 10625 10625 10626 10626 10626 10625 10625 10627 10630 10634
2880.6475 10638 10642 10645 10646 10646 10643 10637 10631 10625 10621 10620
2885.9507 10621 10623 10625 10627 10631 10635 10640 10644 10645 10644 10640
2891.2542 10636 10633 10632 10632 10633 10634 10634 10633 10633 10634 10636
2896.5574 10638 10640 10640 10637 10632 10626 10622 10620 10621 10623 10625
2901.8606 10626 10626 10627 10628 10630 10631 10631 10628 10624 10620 10618
2907.1638 10618 10619 10620 10620 10619 10617 10617 10617 10619 10621 10621
2912.4673 10618 10613 10607 10602 10598 10597 10598 10599 10599 10597 10594
2917.7705 10590 10585 10580 10574 10567 10562 10557 10553 10549 10544 10538
2923.0737 10532 10526 10522 10519 10516 10511 10504 10495 10484 10472 10461
2928.3770 10450 10439 10426 10413 10400 10389 10383 10379 10379 10380 10382
2933.6804 10384 10388 10394 10402 10412 10423 10434 10446 10457 10467 10477
2938.9836 10487 10496 10505 10515 10526 10538 10549 10557 10562 10563 10562
2944.2869 10561 10562 10566 10571 10576 10579 10582 10584 10586 10588 10591
2949.5901 10595 10601 10607 10613 10618 10621 10621 10618 10614 10611 10610
2954.8936 10611 10614 10618 10621 10623 10624 10624 10624 10625 10627 10629
2960.1968 10631 10631 10630 10629 10629 10628 10626 10625 10623 10623 10623
2965.5000 10624 10625 10627 10627 10626 10625 10624 10622 10619 10616 10611
2970.8032 10605 10600 10597 10597 10600 10605 10611 10614 10615 10614 10614
2976.1067 10615 10617 10617 10616 10612 10607 10604 10603 10605 10609 10612
2981.4099 10613 10613 10614 10615 10618 10621 10623 10626 10629 10633 10636
2986.7131 10639 10639 10637 10633 10630 10630 10634 10641 10648 10654 10654
2992.0164 10649 10641 10631 10623 10618 10615 10614 10613 10612 10610 10611
2997.3198 10613 10618 10623 10628 10632 10634 10635 10637 10639 10642 10646
3002.6230 10650 10653 10653 10652 10649 10646 10644 10643 10644 10648 10651
3007.9263 10654 10655 10654 10650 10645 10640 10639 10639 10642 10644 10645
3013.2295 10645 10644 10642 10639 10636 10632 10629 10626 10625 10624 10623
3018.5330 10622 10622 10623 10627 10631 10636 10637 10635 10629 10621 10614
3023.8362 10609 10607 10607 10608 10610 10612 10614 10616 10617 10618 10619
3029.1394 10619 10619 10618 10616 10612 10607 10602 10598 10596 10597 10599
3034.4426 10601 10601 10600 10598 10598 10599 10602 10605 10607 10609 10610
3039.7461 10610 10609 10607 10604 10601 10600 10599 10598 10596 10593 10590
3045.0493 10589 10590 10592 10594 10594 10593 10591 10590 10591 10593 10596
3050.3525 10597 10597 10596 10594 10593 10593 10595 10598 10602 10604 10605
3055.6558 10604 10600 10594 10590 10587 10588 10590 10593 10596 10599 10600
3060.9592 10600 10599 10596 10594 10593 10595 10597 10599 10598 10594 10588
3066.2625 10583 10580 10581 10584 10588 10593 10596 10599 10602 10605 10607
3071.5657 10609 10610 10610 10610 10608 10605 10603 10601 10602 10604 10607
3076.8689 10608 10608 10606 10603 10599 10597 10595 10592 10590 10589 10589
3082.1724 10592 10597 10602 10606 10608 10607 10605 10602 10598 10596 10596
3087.4756 10598 10601 10603 10602 10598 10591 10584 10581 10581 10586 10591
3092.7788 10597 10601 10602 10602 10599 10595 10589 10583 10578 10575 10574
3098.0820 10573 10572 10569 10567 10566 10565 10566 10566 10564 10561 10557
3103.3855 10553 10549 10547 10544 10540 10536 10532 10529 10525 10522 10520
3108.6887 10518 10517 10516 10516 10518 10520 10524 10527 10529 10529 10526
3113.9919 10520 10513 10506 10501 10500 10504 10510 10519 10527 10531 10531
3119.2952 10526 10520 10513 10507 10503 10501 10499 10497 10496 10496 10499
3124.5986 10503 10509 10514 10518 10519 10517 10513 10507 10501 10496 10492
3129.9019 10489 10487 10485 10484 10484 10485 10487 10491 10495 10497 10499
3135.2051 10501 10502 10502 10502 10500 10496 10489 10480 10471 10463 10458
3140.5083 10456 10457 10461 10464 10465 10464 10462 10460 10459 10459 10459
3145.8118 10459 10458 10457 10456 10456 10456 10455 10452 10446 10438 10432
3151.1150 10427 10425 10426 10428 10430 10430 10430 10429 10428 10428 10429
3156.4182 10430 10431 10430 10428 10425 10423 10422 10421 10420 10416 10410
3161.7214 10402 10395 10390 10389 10391 10394 10395 10395 10392 10389 10386
3167.0249 10385 10386 10388 10391 10392 10393 10393 10392 10392 10391 10389
3172.3281 10387 10385 10383 10382 10381 10381 10380 10379 10376 10372 10368
3177.6313 10362 10358 10356 10357 10361 10366 10370 10372 10371 10369 10368
3182.9346 10367 10367 10367 10365 10363 10359 10355 10352 10348 10344 10338
3188.2380 10331 10323 10316 10313 10315 10319 10325 10329 10330 10327 10321
3193.5413 10314 10308 10302 10297 10293 10290 10288 10287 10286 10285 10283
3198.8445 10279 10272 10265 10259 10256 10255 10256 10257 10258 10258 10257
3204.1477 10256 10254 10250 10246 10242 10238 10234 10231 10227 10223 10218
3209.4512 10213 10208 10204 10201 10200 10200 10201 10202 10200 10196 10190
3214.7544 10185 10183 10184 10186 10188 10188 10184 10177 10169 10162 10157
3220.0576 10153 10151 10150 10150 10148 10145 10142 10140 10139 10140 10141
3225.3608 10140 10134 10125 10114 10104 10097 10094 10094 10095 10095 10092
3230.6643 10088 10084 10080 10077 10076 10074 10073 10070 10068 10065 10064
3235.9675 10063 10061 10058 10053 10046 10040 10035 10033 10032 10032 10032
3241.2708 10034 10038 10042 10045 10044 10039 10028 10015 10004 9999 10000
3246.5740 10006 10012 10016 10017 10015 10012 10010 10008 10007 10006 10004
3251.8774 9998 9990 9978 9965 9953 9944 9941 9941 9946 9951 9955 9956 9954
3258.1448 9948 9941 9933 9926 9921 9918 9916 9915 9913 9910 9907 9905 9903
3264.4124 9902 9902 9902 9901 9898 9895 9892 9889 9889 9891 9894 9897 9898
3270.6799 9897 9894 9888 9879 9869 9857 9846 9839 9835 9835 9837 9839 9841
3276.9475 9842 9841 9838 9832 9824 9816 9810 9808 9809 9808 9802 9789 9773
3283.2148 9760 9758 9770 9793 9818 9836 9838 9824 9800 9776 9759 9752 9751
3289.4824 9751 9744 9732 9717 9705 9700 9705 9715 9727 9736 9740 9739 9735
3295.7500 9727 9720 9713 9708 9707 9709 9714 9718 9721 9722 9722 9722 9725
3302.0176 9730 9736 9743 9750 9755 9759 9762 9764 9767 9770 9775 9780 9786
3308.2849 9792 9797 9801 9802 9803 9803 9803 9805 9809 9814 9820 9827 9834
3314.5525 9839 9844 9848 9852 9856 9859 9862 9864 9863 9860 9855 9849 9843
3320.8201 9837 9832 9827 9822 9818 9815 9812 9808 9802 9794 9784 9774 9765
3327.0876 9760 9760 9762 9765 9765 9764 9759 9753 9746 9741 9738 9738 9741
3333.3550 9745 9749 9750 9749 9747 9745 9745 9748 9754 9762 9769 9776 9781
3339.6226 9785 9790 9797 9806 9816 9827 9836 9844 9850 9853 9855 9853 9851
3345.8901 9849 9848 9850 9854 9859 9864 9869 9875 9881 9886 9890 9891 9889
3352.1577 9887 9885 9883 9881 9878 9872 9864 9856 9850 9847 9847 9848 9849
3358.4250 9849 9847 9844 9842 9840 9839 9838 9836 9833 9829 9824 9819 9814
3364.6926 9811 9810 9812 9816 9820 9825 9830 9835 9840 9846 9853 9859 9863
3370.9602 9865 9863 9858 9853 9847 9844 9844 9847 9852 9859 9864 9868 9871
3377.2278 9872 9874 9875 9876 9877 9876 9876 9876 9878 9881 9885 9888 9888
3383.4951 9887 9884 9883 9885 9891 9898 9905 9909 9910 9908 9905 9902 9900
3389.7627 9902 9907 9915 9925 9934 9940 9942 9939 9934 9929 9926 9927 9930
3396.0303 9935 9940 9945 9948 9951 9952 9953 9954 9954 9956 9957 9959 9960
3402.2979 9961 9960 9959 9957 9956 9957 9960 9966 9975 9983 9991 9996 9998
3408.5652 10000 10000 10001 10000 9998 9994 9992 9994 10000 10009 10018 10024
3414.3506 10025 10022 10018 10013 10011 10012 10015 10020 10026 10032 10039
3419.6541 10044 10048 10051 10053 10056 10060 10065 10070 10074 10076 10077
3424.9573 10077 10076 10074 10074 10074 10075 10077 10079 10080 10081 10082
3430.2605 10084 10086 10089 10091 10092 10093 10094 10097 10102 10109 10117
3435.5637 10123 10128 10131 10135 10139 10144 10148 10151 10151 10148 10145
3440.8672 10142 10142 10142 10144 10148 10152 10158 10166 10174 10179 10181
3446.1704 10180 10176 10172 10171 10174 10179 10185 10190 10193 10196 10197
3451.4736 10198 10198 10199 10200 10203 10207 10212 10217 10221 10222 10221
3456.7769 10218 10216 10214 10216 10221 10228 10236 10242 10244 10243 10239
3462.0803 10235 10234 10236 10241 10246 10251 10252 10251 10247 10244 10244
3467.3835 10246 10251 10257 10263 10268 10272 10276 10279 10282 10285 10287
3472.6868 10290 10291 10290 10286 10281 10277 10276 10279 10286 10294 10303
3477.9900 10309 10312 10312 10311 10307 10303 10297 10293 10290 10290 10293
3483.2935 10296 10299 10301 10302 10303 10304 10308 10314 10322 10328 10332
3488.5967 10331 10327 10323 10319 10319 10323 10327 10331 10333 10333 10333
3493.8999 10334 10337 10340 10344 10346 10347 10348 10349 10350 10351 10351
3499.2031 10351 10350 10350 10351 10352 10352 10350 10346 10341 10337 10334
3504.5066 10334 10336 10340 10345 10350 10354 10355 10353 10350 10345 10342
3509.8098 10340 10341 10343 10346 10348 10350 10351 10351 10350 10348 10346
3515.1130 10345 10348 10352 10359 10366 10370 10370 10367 10363 10359 10360
3520.4163 10363 10368 10372 10373 10370 10364 10357 10353 10352 10355 10361
3525.7197 10367 10372 10372 10368 10359 10348 10338 10332 10331 10335 10341
3531.0229 10348 10353 10357 10362 10367 10373 10379 10383 10383 10379 10372
3536.3262 10363 10355 10349 10344 10342 10342 10345 10350 10355 10359 10362
3541.6294 10362 10361 10359 10358 10357 10357 10356 10356 10356 10357 10357
3546.9329 10356 10354 10352 10351 10351 10353 10355 10356 10355 10352 10349
3552.2361 10346 10346 10347 10350 10353 10355 10356 10355 10353 10349 10347
3557.5393 10347 10350 10355 10363 10370 10375 10376 10373 10366 10358 10351
3562.8428 10346 10345 10345 10346 10346 10345 10341 10336 10331 10328 10326
3568.1460 10326 10328 10332 10338 10345 10351 10355 10356 10355 10351 10348
3573.4492 10346 10346 10347 10349 10351 10353 10353 10352 10348 10341 10334
3578.7524 10329 10329 10336 10348 10359 10366 10366 10358 10347 10336 10330
3584.0559 10333 10343 10359 10376 10392 10398 10392 10374 10350 10329 10316
3589.3591 10311 10312 10316 10321 10323 10324 10324 10327 10334 10344 10355
3594.6624 10362 10364 10360 10353 10347 10344 10343 10344 10347 10351 10352
3599.9656 10352 10348 10343 10337 10332 10329 10329 10331 10335 10340 10344
3605.2690 10345 10341 10333 10324 10318 10316 10317 10317 10315 10312 10310
3610.5723 10309 10311 10312 10312 10311 10309 10310 10313 10319 10324 10329
3615.8755 10333 10334 10334 10329 10321 10310 10299 10289 10282 10279 10280
3621.1787 10285 10291 10298 10304 10308 10311 10313 10315 10319 10324 10327
3626.4822 10329 10329 10328 10324 10317 10307 10296 10289 10286 10287 10290
3631.7854 10293 10293 10289 10279 10267 10258 10255 10259 10267 10275 10281
3637.0886 10282 10279 10274 10270 10269 10272 10277 10284 10291 10298 10305
3642.3918 10310 10313 10314 10313 10311 10306 10298 10284 10266 10247 10235
3647.6953 10237 10249 10263 10270 10264 10250 10238 10237 10245 10257 10269
3652.9985 10279 10286 10289 10288 10282 10270 10257 10248 10247 10252 10259
3658.3018 10265 10268 10268 10266 10263 10261 10261 10262 10265 10268 10271
3663.6050 10274 10276 10278 10280 10283 10286 10287 10285 10280 10272 10263
3668.9084 10254 10248 10241 10234 10227 10224 10223 10224 10226 10227 10226
3674.2117 10220 10211 10204 10205 10213 10223 10232 10240 10245 10247 10245
3679.5149 10241 10236 10233 10234 10236 10240 10242 10243 10243 10243 10244
3684.8181 10249 10256 10263 10268 10269 10264 10256 10249 10249 10255 10261
3690.1216 10263 10259 10250 10241 10236 10236 10240 10247 10253 10258 10259
3695.4248 10256 10251 10245 10241 10240 10244 10251 10260 10269 10276 10279
3700.7280 10277 10268 10256 10246 10242 10243 10249 10257 10264 10271 10277
3706.0313 10281 10285 10285 10280 10269 10253 10237 10229 10233 10244 10253
3711.3347 10253 10241 10229 10224 10228 10237 10246 10251 10251 10249 10249
3716.6379 10253 10261 10271 10279 10282 10281 10278 10276 10274 10272 10268
3721.9412 10261 10254 10250 10249 10251 10253 10252 10248 10240 10234 10231
3727.2444 10233 10239 10249 10260 10271 10281 10287 10287 10281 10268 10256
3732.5479 10249 10247 10250 10253 10256 10257 10257 10258 10260 10262 10262
3737.8511 10262 10263 10265 10269 10274 10282 10290 10298 10305 10307 10304
3743.1543 10291 10263 10226 10204 10207 10220 10231 10240 10247 10250 10251
3748.4575 10247 10239 10231 10228 10227 10226 10221 10213 10210 10216 10229
3753.7610 10244 10256 10264 10265 10260 10254 10251 10251 10253 10254 10251
3759.0642 10246 10243 10245 10252 10261 10268 10274 10277 10279 10281 10284
3764.3674 10285 10285 10282 10278 10277 10279 10284 10289 10294 10293 10287
3769.6707 10276 10265 10258 10256 10256 10258 10260 10263 10266 10270 10273
3774.9741 10274 10274 10273 10273 10274 10277 10281 10283 10283 10280 10276
3780.2773 10271 10266 10261 10258 10257 10261 10268 10277 10283 10283 10278
3785.5806 10271 10266 10265 10266 10270 10274 10276 10277 10277 10277 10276
3790.8838 10277 10278 10279 10280 10281 10281 10281 10281 10281 10280 10279
3796.1873 10276 10272 10270 10270 10272 10274 10276 10276 10273 10266 10256
3801.4905 10247 10244 10249 10257 10267 10277 10286 10294 10299 10298 10291
3806.7937 10280 10273 10272 10276 10281 10285 10287 10286 10284 10281 10278
3812.0969 10277 10278 10279 10281 10282 10279 10272 10261 10251 10249 10256
3817.4004 10267 10280 10294 10309 10322 10330 10328 10313 10293 10277 10267
3822.7036 10260 10256 10252 10251 10251 10252 10254 10255 10254 10253 10254
3828.0068 10257 10263 10271 10279 10289 10296 10296 10286 10266 10242 10220
3833.3101 10204 10198 10206 10225 10248 10263 10265 10253 10236 10228 10238
3838.6135 10262 10286 10300 10300 10291 10281 10275 10274 10278 10281 10281
3843.9167 10280 10278 10278 10279 10280 10280 10279 10277 10275 10275 10278
3849.2200 10284 10293 10305 10318 10331 10342 10344 10332 10305 10277 10264
3854.5232 10265 10271 10277 10282 10286 10289 10292 10295 10297 10298 10298
3859.8267 10297 10295 10293 10292 10292 10292 10291 10288 10281 10272 10263
3865.1299 10260 10265 10275 10287 10299 10309 10314 10311 10296 10274 10257
3870.4331 10252 10256 10263 10269 10273 10276 10279 10282 10287 10290 10292
3875.7363 10290 10285 10280 10276 10274 10276 10280 10287 10293 10298 10301
3881.0398 10300 10299 10298 10297 10299 10302 10307 10309 10307 10299 10290
3886.3430 10284 10283 10286 10290 10296 10301 10305 10307 10306 10299 10289
3891.6462 10281 10277 10278 10281 10284 10287 10289 10290 10290 10290 10290
3896.9495 10287 10283 10279 10277 10280 10287 10295 10299 10299 10293 10285
3902.2529 10279 10278 10280 10284 10285 10284 10282 10280 10279 10278 10277
3907.5562 10276 10274 10273 10273 10276 10282 10287 10290 10290 10286 10279
3912.8594 10273 10271 10276 10285 10296 10305 10308 10304 10296 10289 10285
3918.1626 10284 10285 10286 10285 10285 10284 10283 10283 10283 10283 10284
3923.4661 10285 10287 10288 10287 10287 10286 10286 10288 10291 10296 10301
3928.7693 10304 10306 10303 10298 10290 10282 10276 10272 10270 10270 10272
3934.0725 10275 10278 10281 10283 10284 10284 10283 10282 10283 10283 10284
3939.3757 10285 10287 10289 10292 10296 10299 10302 10304 10304 10303 10299
3944.6792 10292 10283 10274 10268 10268 10273 10281 10287 10288 10286 10284
3949.9824 10283 10285 10289 10292 10292 10289 10285 10282 10283 10287 10293
3955.2856 10300 10306 10309 10311 10312 10311 10310 10308 10306 10304 10302
3960.5889 10300 10297 10293 10288 10282 10277 10275 10276 10281 10288 10294
3965.8923 10299 10300 10300 10299 10299 10299 10299 10298 10297 10295 10294
3971.1956 10293 10294 10295 10296 10296 10294 10290 10287 10286 10289 10294
3976.4988 10299 10301 10301 10297 10293 10290 10289 10290 10293 10295 10298
3981.8020 10300 10302 10302 10300 10297 10292 10288 10286 10287 10291 10294
3987.1055 10296 10295 10292 10289 10287 10287 10289 10291 10293 10295 10296
3992.4087 10296 10296 10293 10290 10285 10282 10280 10281 10283 10284 10286
3997.7119 10286 10286 10287 10290 10292 10294
##END= 
