##TITLE= INCACIDOTANNICO
##JCAMP-DX= 4.24
##DATA TYPE= INFRARED SPECTRUM
##ORIGIN= JASCO
##OWNER= 
##DATE= 22/04/13
##TIME= 17:13:25
##SPECTROMETER/DATA SYSTEM= 
##RESOLUTION= 
##DELTAX=   0.48211674
##XUNITS= 1/CM
##YUNITS= TRANSMITTANCE
##XFACTOR= 1.00000
##YFACTOR= 0.0001
##FIRSTX=   599.7532
##LASTX=  4000.1226
##NPOINTS=     7054
##FIRSTY=      0.64223
##MAXY=      1.01261
##MINY=      0.36154
##XYDATA= (X++(Y..Y))
599.7532 6422 6459 6482 6492 6490 6483 6475 6470 6470 6474 6482 6489 6493 6494
606.5029 6495 6502 6514 6527 6535 6534 6528 6522 6524 6534 6548 6559 6559 6547
613.2525 6525 6496 6467 6439 6417 6408 6413 6435 6467 6498 6520 6530 6534 6540
620.0021 6554 6575 6598 6614 6619 6614 6605 6599 6596 6596 6594 6591 6585 6580
626.7518 6577 6574 6568 6557 6539 6517 6494 6476 6464 6461 6466 6480 6497 6514
633.5014 6526 6530 6527 6520 6515 6517 6528 6544 6563 6580 6591 6595 6591 6581
640.2510 6561 6533 6496 6456 6420 6396 6388 6394 6408 6422 6428 6425 6414 6398
647.0007 6381 6364 6345 6324 6302 6283 6271 6275 6297 6338 6389 6439 6478 6499
653.7503 6507 6509 6514 6524 6532 6533 6522 6505 6495 6499 6523 6560 6600 6633
660.4999 6656 6670 6677 6678 6670 6656 6640 6630 6632 6644 6660 6672 6678 6673
667.2496 6661 6654 6678 6727 6770 6797 6814 6822 6818 6802 6777 6754 6741 6743
673.9992 6756 6770 6773 6760 6736 6711 6697 6699 6712 6729 6739 6740 6735 6735
680.7488 6746 6772 6807 6839 6858 6857 6836 6798 6752 6709 6675 6655 6650 6658
687.4985 6677 6706 6742 6782 6817 6839 6840 6820 6787 6751 6719 6698 6685 6676
694.2481 6665 6650 6631 6613 6606 6618 6651 6698 6741 6767 6770 6757 6744 6745
700.9977 6761 6780 6784 6759 6709 6648 6597 6572 6575 6601 6635 6664 6684 6694
707.7474 6700 6707 6721 6740 6758 6767 6764 6752 6738 6735 6752 6791 6844 6900
714.4970 6946 6973 6983 6983 6984 6991 7004 7017 7018 6999 6959 6906 6850 6802
721.2466 6764 6735 6709 6684 6659 6637 6619 6602 6582 6558 6526 6488 6446 6403
727.9963 6364 6334 6315 6308 6308 6305 6294 6270 6236 6198 6163 6136 6117 6104
734.7459 6092 6079 6062 6042 6020 5999 5983 5972 5966 5959 5947 5927 5901 5872
741.4955 5847 5830 5822 5818 5812 5796 5767 5723 5668 5605 5539 5473 5408 5345
748.2452 5285 5231 5189 5160 5143 5136 5134 5132 5128 5123 5117 5112 5109 5112
754.9948 5119 5131 5144 5152 5153 5149 5147 5155 5178 5214 5252 5281 5295 5295
761.7444 5287 5280 5280 5289 5307 5337 5380 5441 5519 5612 5716 5825 5937 6052
768.4941 6168 6285 6401 6515 6627 6737 6845 6950 7048 7134 7209 7274 7333 7391
775.2437 7448 7504 7555 7599 7637 7670 7699 7725 7746 7761 7771 7780 7792 7810
781.9933 7833 7857 7879 7896 7909 7919 7929 7939 7948 7953 7954 7954 7954 7959
788.7430 7969 7986 8007 8032 8058 8085 8110 8132 8150 8164 8175 8184 8193 8204
795.4926 8219 8242 8278 8326 8381 8434 8474 8495 8495 8482 8460 8437 8415 8395
802.2422 8378 8365 8355 8351 8351 8354 8361 8371 8384 8397 8407 8410 8405 8392
808.9919 8374 8355 8338 8324 8314 8306 8299 8292 8283 8273 8266 8263 8268 8278
815.7415 8289 8297 8298 8292 8283 8276 8274 8276 8279 8282 8283 8284 8286 8292
822.4911 8300 8308 8316 8323 8331 8344 8363 8388 8413 8433 8445 8448 8446 8444
829.2408 8446 8454 8467 8481 8493 8497 8491 8476 8455 8432 8410 8389 8372 8358
835.9904 8350 8349 8356 8367 8378 8382 8381 8377 8377 8381 8390 8399 8403 8400
842.7401 8394 8389 8388 8394 8402 8409 8412 8411 8407 8400 8392 8383 8371 8359
849.4897 8347 8335 8324 8315 8307 8300 8295 8296 8304 8319 8339 8360 8378 8389
856.2393 8391 8387 8378 8363 8342 8313 8275 8228 8171 8107 8039 7968 7901 7840
862.9890 7790 7753 7729 7714 7706 7703 7702 7703 7704 7704 7699 7691 7679 7665
869.7386 7652 7642 7634 7629 7625 7623 7623 7625 7630 7638 7646 7655 7664 7672
876.4882 7680 7688 7697 7709 7725 7749 7780 7815 7850 7881 7904 7923 7941 7962
883.2379 7989 8019 8051 8080 8104 8123 8139 8154 8170 8186 8204 8219 8232 8241
889.9875 8246 8247 8247 8246 8246 8246 8246 8245 8243 8240 8237 8236 8237 8241
896.7371 8246 8251 8255 8260 8267 8276 8285 8292 8295 8292 8287 8283 8282 8284
903.4868 8289 8295 8300 8304 8307 8310 8313 8314 8315 8315 8315 8317 8321 8328
910.2364 8337 8345 8353 8358 8362 8366 8370 8376 8381 8385 8386 8383 8376 8364
916.9860 8349 8330 8305 8278 8248 8220 8196 8176 8159 8145 8131 8118 8104 8094
923.7357 8088 8086 8089 8094 8098 8099 8099 8096 8091 8085 8079 8072 8064 8056
930.4853 8048 8041 8037 8036 8040 8047 8054 8058 8057 8050 8037 8020 8002 7982
937.2349 7963 7943 7924 7908 7897 7889 7884 7879 7874 7867 7861 7856 7852 7849
943.9846 7846 7841 7834 7826 7818 7813 7812 7815 7821 7825 7825 7820 7808 7794
950.7342 7782 7774 7770 7769 7765 7757 7743 7725 7707 7692 7684 7681 7682 7684
957.4838 7686 7688 7689 7689 7688 7685 7679 7670 7659 7649 7640 7635 7632 7632
964.2335 7632 7633 7635 7638 7645 7655 7666 7678 7690 7701 7713 7724 7734 7742
970.9831 7745 7743 7736 7725 7710 7693 7677 7660 7644 7631 7620 7610 7601 7590
977.7327 7574 7553 7529 7503 7476 7450 7423 7392 7356 7315 7271 7227 7183 7140
984.4824 7097 7055 7013 6973 6936 6903 6871 6838 6803 6765 6724 6681 6636 6589
991.2320 6540 6490 6440 6392 6347 6305 6267 6233 6202 6174 6148 6124 6098 6069
997.9816 6035 5996 5954 5911 5869 5830 5793 5757 5722 5684 5645 5604 5563 5523
1004.7313 5486 5450 5415 5381 5347 5315 5285 5256 5229 5203 5178 5154 5132
1010.9988 5113 5096 5078 5060 5038 5014 4988 4961 4935 4911 4892 4876 4863
1017.2663 4849 4835 4817 4797 4775 4752 4728 4705 4681 4656 4630 4603 4578
1023.5338 4555 4535 4520 4511 4507 4509 4517 4530 4547 4568 4593 4621 4653
1029.8014 4689 4728 4770 4815 4861 4909 4957 5005 5052 5099 5148 5200 5258
1036.0688 5322 5390 5461 5532 5601 5668 5733 5797 5861 5925 5989 6054 6117
1042.3364 6179 6239 6297 6354 6412 6471 6533 6598 6663 6728 6793 6856 6915
1048.6039 6970 7019 7061 7097 7128 7152 7170 7183 7190 7194 7196 7198 7202
1054.8715 7206 7209 7209 7206 7199 7190 7183 7179 7179 7181 7184 7186 7185
1061.1389 7180 7171 7158 7144 7130 7116 7101 7085 7067 7049 7033 7020 7012
1067.4065 7007 7004 7003 7002 7001 7000 6998 6994 6987 6978 6967 6956 6944
1073.6740 6931 6917 6902 6885 6867 6851 6837 6826 6819 6815 6814 6812 6807
1079.9415 6796 6779 6759 6740 6726 6717 6715 6717 6721 6725 6730 6737 6748
1086.2090 6764 6787 6813 6840 6864 6886 6904 6922 6943 6966 6991 7018 7043
1092.4766 7066 7087 7106 7123 7139 7155 7171 7188 7207 7227 7248 7269 7289
1098.7440 7311 7335 7362 7392 7423 7452 7479 7501 7521 7539 7558 7579 7602
1105.0116 7629 7658 7687 7714 7738 7758 7774 7787 7798 7808 7819 7831 7847
1111.2791 7866 7886 7908 7928 7945 7959 7970 7979 7985 7989 7992 7994 7996
1117.5466 8001 8008 8017 8027 8035 8040 8040 8037 8031 8023 8012 7999 7984
1123.8141 7967 7950 7933 7916 7899 7881 7862 7841 7819 7795 7769 7742 7714
1130.0817 7688 7662 7637 7613 7591 7568 7545 7522 7497 7472 7446 7419 7391
1136.3491 7362 7332 7303 7273 7244 7214 7184 7154 7124 7096 7071 7048 7025
1142.6167 7001 6973 6942 6908 6871 6833 6792 6749 6704 6655 6605 6553 6500
1148.8842 6446 6393 6339 6284 6228 6172 6116 6061 6009 5960 5912 5865 5817
1155.1517 5767 5717 5667 5617 5568 5518 5468 5417 5367 5318 5272 5227 5184
1161.4192 5143 5102 5060 5018 4974 4929 4883 4839 4798 4758 4721 4683 4644
1167.6868 4602 4559 4515 4474 4435 4400 4367 4336 4305 4274 4243 4212 4182
1173.9542 4154 4128 4105 4085 4066 4047 4027 4006 3985 3966 3949 3935 3922
1180.2218 3909 3894 3877 3857 3837 3816 3797 3778 3760 3742 3725 3710 3695
1186.4893 3683 3672 3663 3654 3644 3634 3625 3619 3615 3616 3619 3624 3629
1192.7568 3635 3640 3645 3649 3654 3660 3667 3677 3691 3708 3726 3746 3764
1199.0243 3783 3801 3820 3842 3865 3889 3913 3938 3962 3986 4012 4038 4064
1205.2919 4090 4114 4137 4159 4181 4205 4229 4255 4281 4306 4330 4354 4378
1211.5593 4404 4430 4458 4488 4518 4548 4580 4611 4643 4675 4707 4739 4770
1217.8269 4801 4831 4861 4892 4926 4962 5000 5039 5079 5120 5162 5206 5253
1224.0944 5302 5353 5406 5459 5511 5562 5609 5653 5691 5724 5750 5772 5789
1230.3619 5803 5816 5828 5839 5852 5866 5882 5901 5925 5952 5983 6017 6054
1236.6294 6094 6136 6182 6233 6286 6341 6395 6447 6494 6537 6575 6607 6632
1242.8970 6650 6660 6661 6657 6648 6640 6633 6628 6624 6622 6621 6620 6621
1249.1644 6626 6633 6644 6657 6670 6682 6694 6705 6716 6728 6741 6754 6767
1255.4320 6779 6792 6803 6814 6823 6830 6837 6843 6850 6857 6866 6879 6895
1261.6995 6915 6939 6965 6994 7024 7055 7083 7106 7121 7127 7128 7133 7151
1267.9670 7187 7238 7293 7340 7369 7376 7366 7344 7321 7300 7283 7269 7258
1274.2345 7251 7246 7245 7247 7251 7256 7261 7267 7273 7279 7284 7287 7288
1280.5021 7287 7283 7276 7267 7255 7240 7223 7204 7182 7158 7131 7102 7070
1286.7695 7036 7001 6965 6929 6891 6852 6810 6765 6718 6671 6624 6577 6529
1293.0371 6480 6428 6375 6319 6263 6207 6149 6091 6033 5976 5921 5866 5812
1299.3046 5758 5704 5650 5597 5545 5495 5448 5402 5359 5318 5279 5244 5212
1305.5721 5183 5157 5132 5108 5085 5064 5045 5027 5012 4997 4985 4973 4963
1311.8396 4956 4950 4946 4946 4949 4955 4963 4975 4988 5002 5016 5029 5043
1318.1072 5057 5073 5090 5108 5126 5144 5163 5182 5202 5224 5246 5270 5295
1324.3746 5321 5348 5374 5399 5423 5446 5468 5490 5512 5534 5556 5579 5601
1330.6422 5623 5646 5669 5693 5716 5739 5761 5781 5800 5817 5833 5848 5863
1336.9097 5878 5892 5906 5921 5938 5958 5980 6004 6026 6045 6062 6078 6093
1343.1772 6109 6126 6145 6166 6188 6211 6234 6258 6281 6305 6328 6353 6380
1349.4447 6410 6440 6472 6505 6540 6575 6611 6646 6681 6716 6754 6793 6833
1355.7123 6872 6908 6942 6975 7006 7036 7065 7092 7115 7134 7150 7164 7176
1361.9797 7189 7204 7221 7239 7258 7276 7293 7310 7326 7340 7351 7361 7369
1368.2473 7378 7387 7399 7411 7424 7437 7448 7458 7466 7471 7477 7484 7494
1374.5148 7508 7525 7543 7561 7578 7595 7610 7625 7641 7657 7675 7695 7713
1380.7823 7731 7748 7764 7780 7797 7816 7835 7852 7868 7881 7892 7904 7922
1387.0498 7946 7978 8011 8041 8068 8091 8115 8142 8171 8201 8231 8258 8283
1393.3174 8307 8332 8360 8390 8420 8448 8472 8492 8510 8527 8545 8568 8595
1399.5848 8624 8651 8674 8695 8714 8732 8748 8763 8776 8789 8804 8823 8845
1405.8524 8869 8891 8911 8929 8945 8961 8975 8989 9002 9015 9026 9037 9049
1412.1199 9062 9075 9089 9103 9115 9125 9133 9138 9140 9140 9139 9134 9126
1418.3875 9114 9102 9097 9101 9112 9124 9134 9141 9144 9143 9141 9140 9142
1424.6549 9147 9152 9158 9161 9162 9161 9158 9151 9140 9120 9090 9052 9009
1430.9225 8966 8923 8876 8822 8759 8691 8626 8566 8509 8447 8364 8251 8122
1437.1899 8012 7936 7882 7832 7781 7725 7667 7611 7562 7518 7481 7449 7422
1443.4575 7402 7388 7379 7374 7373 7374 7377 7386 7402 7428 7460 7495 7530
1449.7250 7563 7595 7630 7667 7706 7747 7787 7825 7861 7897 7932 7968 8008
1455.9926 8056 8113 8178 8244 8308 8368 8424 8475 8518 8554 8584 8611 8634
1462.2600 8655 8671 8683 8693 8704 8723 8753 8787 8822 8857 8891 8929 8971
1468.5276 9016 9060 9103 9141 9173 9200 9223 9244 9273 9310 9350 9386 9417
1474.7950 9443 9467 9491 9514 9538 9559 9579 9596 9611 9624 9637 9648 9660
1481.0626 9673 9689 9707 9726 9744 9759 9771 9777 9778 9773 9762 9745 9725
1487.3301 9702 9681 9660 9637 9612 9587 9568 9560 9561 9565 9568 9569 9568
1493.5977 9566 9563 9558 9551 9543 9537 9533 9534 9535 9536 9535 9533 9534
1499.8651 9536 9540 9545 9549 9554 9560 9565 9571 9577 9583 9588 9589 9577
1506.1327 9540 9481 9429 9395 9369 9342 9312 9281 9249 9214 9174 9126 9070
1512.4001 9014 8962 8919 8883 8850 8819 8786 8752 8721 8698 8688 8687 8689
1518.6677 8690 8686 8677 8662 8641 8621 8611 8610 8612 8612 8607 8598 8582
1524.9352 8560 8533 8505 8480 8457 8435 8414 8393 8374 8355 8336 8315 8291
1531.2028 8266 8239 8214 8191 8171 8158 8152 8154 8160 8167 8174 8180 8184
1537.4702 8185 8186 8193 8218 8266 8320 8361 8393 8426 8464 8502 8535 8560
1543.7378 8581 8605 8636 8675 8713 8746 8770 8788 8802 8814 8823 8833 8845
1550.0052 8863 8884 8905 8923 8937 8948 8959 8975 8999 9031 9062 9086 9101
1556.2728 9111 9115 9113 9104 9090 9089 9121 9163 9194 9214 9227 9235 9241
1562.5403 9244 9245 9243 9239 9234 9230 9227 9226 9224 9222 9217 9210 9201
1568.8079 9189 9179 9173 9172 9172 9172 9169 9162 9154 9145 9135 9126 9113
1575.0753 9094 9062 9020 8984 8963 8951 8940 8926 8907 8885 8861 8838 8816
1581.3429 8794 8771 8748 8724 8701 8679 8657 8635 8610 8582 8550 8513 8472
1587.6105 8428 8380 8329 8276 8221 8165 8109 8054 8001 7949 7898 7846 7791
1593.8779 7732 7669 7602 7533 7465 7399 7334 7271 7210 7150 7093 7038 6985
1600.1455 6935 6888 6845 6806 6771 6739 6710 6683 6660 6639 6621 6604 6590
1606.4130 6579 6571 6566 6565 6567 6575 6586 6601 6619 6638 6658 6682 6711
1612.6805 6746 6787 6828 6866 6899 6932 6972 7034 7119 7206 7271 7313 7343
1618.9480 7370 7399 7429 7458 7483 7503 7519 7535 7556 7584 7618 7651 7680
1625.2156 7704 7726 7748 7774 7807 7847 7890 7933 7974 8011 8048 8087 8129
1631.4830 8173 8214 8251 8281 8306 8329 8356 8393 8440 8487 8522 8547 8570
1637.7506 8593 8617 8640 8662 8681 8698 8712 8726 8739 8751 8761 8770 8775
1644.0181 8776 8773 8766 8754 8741 8730 8727 8733 8745 8757 8768 8774 8777
1650.2856 8778 8775 8772 8766 8754 8730 8703 8695 8703 8713 8721 8726 8728
1656.5531 8726 8722 8715 8708 8701 8694 8686 8677 8665 8651 8634 8614 8595
1662.8207 8579 8568 8559 8550 8538 8524 8506 8487 8466 8444 8418 8387 8351
1669.0881 8314 8284 8265 8251 8235 8216 8193 8169 8146 8123 8097 8065 8027
1675.3557 7988 7956 7930 7906 7881 7852 7819 7783 7744 7703 7663 7626 7593
1681.6232 7563 7531 7497 7454 7399 7340 7300 7281 7266 7248 7225 7200 7172
1687.8907 7142 7111 7080 7052 7027 7006 6986 6967 6946 6923 6897 6869 6840
1694.1582 6811 6783 6760 6752 6759 6768 6768 6759 6743 6723 6704 6699 6733
1700.4258 6799 6841 6849 6842 6833 6828 6830 6841 6860 6884 6911 6940 6971
1706.6932 7003 7030 7051 7066 7079 7093 7111 7135 7162 7189 7212 7230 7244
1712.9608 7258 7274 7296 7323 7352 7375 7390 7399 7413 7447 7510 7586 7647
1719.2283 7688 7716 7738 7759 7780 7804 7831 7863 7902 7945 7989 8030 8068
1725.4958 8103 8138 8172 8206 8236 8261 8285 8311 8345 8387 8432 8471 8500
1731.7633 8517 8526 8533 8549 8592 8661 8726 8772 8804 8831 8855 8878 8897
1738.0309 8914 8930 8950 8979 9016 9051 9079 9098 9113 9127 9144 9166 9191
1744.2983 9215 9237 9255 9270 9284 9297 9311 9328 9347 9364 9378 9388 9398
1750.5659 9411 9430 9454 9478 9499 9515 9527 9537 9546 9554 9562 9571 9583
1756.8334 9597 9611 9625 9636 9646 9653 9660 9666 9672 9677 9682 9687 9692
1763.1010 9698 9704 9710 9715 9720 9723 9725 9725 9725 9725 9726 9729 9733
1769.3684 9736 9736 9732 9726 9717 9714 9720 9734 9749 9760 9767 9771 9772
1775.6360 9773 9775 9777 9780 9784 9787 9789 9789 9787 9782 9776 9773 9775
1781.9034 9781 9788 9794 9798 9799 9797 9795 9794 9796 9798 9801 9802 9803
1788.1710 9804 9803 9802 9800 9795 9787 9778 9768 9764 9766 9774 9784 9791
1794.4385 9794 9795 9796 9799 9805 9813 9820 9822 9819 9810 9798 9787 9781
1800.7061 9780 9783 9788 9794 9799 9805 9810 9815 9820 9824 9828 9830 9830
1806.9735 9829 9825 9821 9816 9811 9805 9801 9798 9799 9803 9810 9817 9823
1813.2411 9828 9831 9832 9831 9829 9824 9819 9815 9813 9815 9820 9826 9831
1819.5085 9831 9829 9823 9819 9817 9819 9823 9827 9828 9824 9817 9810 9807
1825.7761 9811 9819 9828 9835 9837 9835 9830 9823 9817 9813 9812 9811 9810
1832.0436 9808 9806 9806 9809 9815 9822 9828 9831 9830 9827 9825 9825 9829
1838.3112 9836 9842 9846 9848 9847 9844 9839 9833 9826 9818 9809 9798 9788
1844.5786 9781 9778 9778 9781 9786 9790 9794 9798 9800 9804 9809 9815 9822
1850.8462 9827 9828 9826 9822 9818 9815 9814 9814 9815 9814 9812 9808 9804
1857.1136 9800 9799 9800 9803 9807 9810 9811 9810 9808 9806 9804 9803 9804
1863.3812 9806 9809 9812 9812 9810 9805 9798 9791 9787 9787 9793 9800 9806
1869.6487 9809 9809 9808 9809 9813 9820 9828 9833 9830 9820 9805 9790 9779
1875.9163 9775 9778 9785 9791 9796 9799 9801 9803 9806 9808 9810 9810 9812
1882.1837 9815 9819 9824 9827 9827 9823 9815 9807 9801 9797 9795 9794 9792
1888.4513 9788 9782 9777 9776 9780 9788 9797 9804 9808 9808 9805 9802 9800
1894.7188 9799 9799 9801 9803 9807 9812 9816 9818 9816 9813 9809 9807 9807
1900.9863 9809 9812 9814 9813 9811 9808 9805 9802 9799 9796 9793 9790 9789
1907.2538 9791 9797 9808 9823 9838 9850 9855 9850 9839 9825 9812 9804 9803
1913.5214 9808 9816 9822 9821 9813 9798 9781 9767 9765 9779 9803 9830 9851
1919.7888 9861 9860 9849 9830 9807 9787 9779 9785 9804 9826 9842 9848 9843
1926.0564 9832 9820 9812 9809 9811 9814 9818 9823 9833 9847 9865 9882 9891
1932.3239 9889 9875 9853 9830 9814 9807 9809 9814 9817 9816 9811 9805 9803
1938.5914 9806 9813 9820 9823 9819 9807 9790 9772 9761 9759 9766 9774 9781
1944.8589 9784 9785 9790 9801 9819 9841 9860 9869 9865 9849 9824 9797 9772
1951.1265 9754 9745 9749 9765 9794 9828 9862 9885 9893 9889 9878 9871 9872
1957.3939 9878 9886 9891 9892 9891 9892 9895 9899 9900 9896 9883 9859 9825
1963.6615 9782 9741 9712 9705 9723 9759 9798 9825 9833 9827 9819 9818 9824
1969.9290 9829 9821 9797 9761 9732 9728 9760 9826 9906 9973 10002 9981 9917
1976.1965 9832 9753 9702 9689 9707 9743 9778 9801 9809 9805 9795 9783 9771
1982.4640 9762 9758 9767 9794 9839 9895 9948 9981 9982 9951 9898 9839 9794
1988.7316 9774 9779 9803 9834 9863 9887 9905 9917 9921 9913 9889 9848 9793
1994.9990 9738 9698 9689 9716 9775 9847 9911 9950 9955 9933 9899 9865 9842
2001.2666 9829 9824 9825 9833 9849 9870 9889 9899 9899 9894 9894 9903 9916
2007.5341 9920 9906 9878 9850 9841 9855 9886 9915 9928 9919 9893 9859 9827
2013.8016 9805 9795 9802 9831 9881 9945 10007 10052 10069 10055 10019 9970
2019.5870 9917 9867 9823 9792 9781 9796 9837 9899 9968 10029 10069 10083 10072
2025.8545 10045 10012 9984 9965 9959 9962 9971 9977 9974 9961 9942 9928 9929
2032.1221 9947 9974 9993 9988 9956 9908 9869 9862 9894 9952 10009 10037 10026
2038.3895 9987 9939 9906 9895 9903 9918 9932 9940 9946 9951 9956 9957 9953
2044.6571 9944 9933 9921 9909 9894 9879 9867 9865 9874 9892 9914 9931 9940
2050.9246 9939 9933 9925 9918 9912 9908 9903 9898 9893 9887 9884 9884 9889
2057.1921 9896 9903 9905 9901 9892 9881 9869 9860 9855 9853 9852 9852 9851
2063.4597 9849 9845 9841 9836 9832 9829 9829 9833 9841 9852 9866 9878 9887
2069.7271 9889 9883 9869 9850 9831 9817 9808 9803 9798 9791 9783 9775 9773
2075.9946 9781 9797 9818 9841 9861 9876 9888 9896 9901 9898 9887 9866 9837
2082.2622 9806 9780 9764 9764 9778 9804 9833 9858 9875 9881 9876 9865 9850
2088.5298 9835 9825 9818 9816 9816 9814 9809 9802 9795 9791 9790 9791 9790
2094.7971 9786 9780 9777 9781 9794 9812 9831 9844 9850 9850 9845 9839 9834
2101.0647 9830 9826 9822 9817 9811 9803 9795 9788 9784 9782 9783 9784 9782
2107.3323 9779 9776 9777 9783 9793 9802 9804 9799 9788 9779 9780 9792 9813
2113.5999 9834 9847 9848 9838 9825 9813 9806 9802 9800 9800 9804 9813 9827
2119.8672 9843 9854 9857 9851 9840 9830 9825 9825 9828 9829 9829 9826 9822
2126.1348 9818 9814 9813 9816 9823 9835 9847 9853 9846 9826 9796 9768 9752
2132.4023 9752 9767 9787 9804 9808 9799 9783 9766 9758 9764 9781 9806 9831
2138.6699 9849 9859 9864 9866 9868 9866 9858 9840 9814 9785 9760 9745 9744
2144.9373 9760 9792 9837 9887 9930 9956 9959 9944 9923 9907 9902 9906 9912
2151.2048 9914 9913 9912 9913 9916 9919 9918 9913 9908 9906 9914 9937 9977
2157.4724 10032 10089 10126 10124 10079 10006 9932 9879 9855 9853 9863 9878
2163.2578 9900 9932 9976 10021 10053 10060 10037 9995 9946 9904 9875 9858 9847
2169.5254 9840 9838 9849 9877 9919 9967 10006 10023 10015 9989 9954 9921 9892
2175.7927 9870 9854 9848 9856 9880 9914 9951 9978 9988 9979 9954 9922 9893
2182.0603 9878 9878 9893 9911 9924 9925 9917 9905 9896 9892 9889 9883 9875
2188.3279 9869 9869 9876 9887 9892 9887 9870 9844 9817 9793 9779 9779 9793
2194.5955 9820 9856 9889 9908 9905 9879 9840 9804 9786 9792 9819 9852 9876
2200.8628 9881 9867 9845 9827 9822 9831 9843 9849 9844 9833 9827 9836 9859
2207.1304 9885 9900 9896 9878 9857 9845 9849 9865 9885 9902 9914 9922 9927
2213.3979 9927 9920 9905 9885 9867 9858 9858 9867 9878 9885 9884 9876 9863
2219.6655 9850 9839 9831 9824 9818 9813 9807 9804 9805 9813 9828 9851 9876
2225.9329 9898 9912 9916 9911 9902 9895 9895 9900 9908 9914 9914 9906 9891
2232.2004 9873 9854 9839 9830 9828 9834 9845 9856 9862 9859 9849 9837 9830
2238.4680 9832 9843 9856 9867 9870 9866 9858 9850 9843 9835 9827 9820 9817
2244.7356 9819 9828 9841 9855 9868 9878 9887 9895 9901 9904 9897 9880 9852
2251.0029 9820 9790 9775 9778 9801 9835 9868 9891 9898 9892 9879 9865 9854
2257.2705 9845 9837 9829 9820 9815 9817 9828 9846 9866 9880 9882 9870 9849
2263.5381 9827 9812 9809 9818 9832 9845 9854 9860 9863 9865 9866 9863 9855
2269.8057 9844 9836 9832 9836 9844 9851 9855 9854 9850 9846 9842 9839 9835
2276.0730 9831 9828 9827 9830 9834 9838 9837 9834 9829 9825 9824 9824 9826
2282.3406 9827 9828 9830 9832 9834 9835 9834 9831 9828 9826 9828 9831 9836
2288.6082 9839 9841 9841 9839 9836 9833 9831 9830 9830 9831 9831 9830 9827
2294.8757 9823 9817 9811 9805 9801 9799 9800 9805 9812 9819 9825 9827 9824
2301.1431 9817 9808 9797 9787 9778 9772 9768 9766 9767 9767 9766 9763 9760
2307.4106 9757 9757 9759 9762 9764 9763 9760 9755 9752 9752 9755 9760 9764
2313.6782 9764 9761 9757 9753 9751 9752 9753 9753 9750 9742 9733 9724 9718
2319.9458 9716 9718 9722 9723 9721 9715 9708 9701 9697 9697 9697 9695 9690
2326.2131 9681 9674 9672 9678 9691 9707 9718 9719 9709 9694 9679 9671 9671
2332.4807 9676 9682 9686 9688 9687 9685 9685 9686 9690 9696 9704 9711 9715
2338.7483 9713 9704 9689 9669 9650 9636 9630 9633 9643 9657 9672 9684 9692
2345.0159 9697 9699 9701 9703 9704 9704 9700 9695 9687 9679 9670 9662 9654
2351.2832 9648 9643 9641 9642 9648 9658 9668 9676 9679 9679 9677 9673 9668
2357.5508 9661 9654 9651 9655 9663 9669 9668 9658 9643 9628 9617 9608 9599
2363.8184 9590 9583 9584 9594 9614 9638 9662 9679 9687 9684 9675 9664 9656
2370.0859 9656 9664 9675 9685 9691 9690 9685 9678 9674 9673 9675 9679 9683
2376.3533 9686 9686 9685 9683 9682 9683 9688 9693 9699 9704 9706 9707 9707
2382.6208 9707 9708 9710 9713 9716 9719 9720 9721 9721 9722 9722 9721 9717
2388.8884 9712 9706 9701 9698 9700 9704 9710 9715 9717 9717 9713 9706 9699
2395.1560 9692 9687 9684 9683 9683 9684 9685 9688 9690 9692 9692 9691 9688
2401.4233 9685 9683 9680 9676 9673 9670 9669 9669 9671 9675 9680 9685 9689
2407.6909 9690 9688 9682 9673 9663 9656 9654 9655 9658 9659 9657 9653 9648
2413.9585 9645 9645 9647 9650 9651 9649 9647 9646 9647 9649 9652 9653 9652
2420.2261 9649 9645 9641 9640 9641 9644 9648 9652 9654 9653 9650 9647 9643
2426.4934 9641 9639 9639 9638 9636 9635 9634 9634 9635 9637 9637 9636 9632
2432.7610 9627 9622 9618 9615 9612 9611 9610 9612 9615 9618 9621 9623 9624
2439.0286 9626 9627 9628 9627 9624 9619 9615 9613 9614 9616 9616 9614 9610
2445.2961 9605 9601 9601 9604 9609 9613 9616 9617 9617 9616 9615 9614 9611
2451.5635 9606 9600 9595 9594 9596 9603 9610 9617 9620 9618 9614 9608 9603
2457.8311 9599 9596 9595 9593 9593 9593 9593 9593 9592 9590 9587 9582 9578
2464.0986 9575 9574 9577 9581 9585 9587 9585 9579 9571 9563 9558 9558 9563
2470.3662 9572 9581 9588 9590 9587 9580 9572 9565 9560 9558 9558 9558 9559
2476.6335 9560 9560 9559 9557 9554 9553 9553 9555 9556 9558 9558 9559 9560
2482.9011 9561 9561 9560 9557 9551 9547 9544 9544 9546 9548 9548 9546 9542
2489.1687 9537 9533 9532 9533 9537 9543 9549 9551 9548 9541 9532 9523 9519
2495.4363 9520 9525 9532 9536 9537 9533 9526 9518 9513 9511 9511 9514 9516
2501.7036 9517 9515 9512 9507 9503 9501 9501 9504 9507 9510 9512 9512 9511
2507.9712 9509 9507 9505 9505 9506 9507 9508 9509 9508 9506 9502 9496 9490
2514.2388 9484 9480 9479 9479 9482 9484 9487 9487 9486 9483 9480 9477 9476
2520.5063 9476 9478 9480 9481 9482 9481 9482 9483 9486 9489 9489 9485 9478
2526.7737 9470 9463 9460 9459 9459 9458 9454 9448 9442 9438 9437 9438 9440
2533.0413 9444 9449 9454 9457 9458 9455 9447 9437 9428 9422 9420 9422 9427
2539.3088 9431 9434 9435 9433 9430 9427 9423 9420 9419 9420 9422 9422 9421
2545.5764 9417 9413 9409 9406 9406 9407 9408 9410 9410 9409 9406 9403 9399
2551.8438 9394 9389 9384 9380 9377 9375 9375 9379 9385 9392 9398 9401 9400
2558.1113 9394 9386 9377 9369 9364 9363 9363 9365 9365 9364 9360 9355 9350
2564.3789 9346 9344 9345 9347 9351 9356 9360 9364 9365 9363 9359 9353 9347
2570.6465 9343 9340 9341 9343 9345 9347 9346 9343 9337 9330 9325 9323 9327
2576.9141 9333 9340 9346 9347 9346 9342 9336 9331 9327 9323 9322 9324 9327
2583.1814 9331 9335 9338 9339 9339 9337 9336 9334 9333 9332 9332 9333 9335
2589.4490 9338 9341 9345 9348 9350 9350 9348 9345 9341 9338 9338 9339 9340
2595.7166 9340 9339 9335 9332 9329 9328 9328 9330 9332 9335 9337 9338 9337
2601.9841 9335 9330 9326 9323 9322 9323 9326 9329 9329 9327 9323 9319 9316
2608.2515 9314 9314 9315 9316 9317 9318 9318 9316 9313 9310 9308 9307 9307
2614.5190 9307 9307 9304 9300 9297 9296 9297 9299 9300 9299 9298 9297 9296
2620.7866 9295 9293 9292 9292 9292 9293 9293 9291 9286 9280 9275 9272 9273
2627.0542 9278 9284 9288 9290 9288 9282 9276 9272 9270 9271 9274 9276 9277
2633.3215 9276 9274 9271 9267 9263 9258 9254 9251 9250 9251 9254 9257 9260
2639.5891 9261 9261 9260 9259 9259 9259 9259 9257 9254 9250 9247 9246 9248
2645.8567 9252 9258 9262 9264 9262 9256 9248 9241 9236 9234 9233 9234 9235
2652.1243 9236 9236 9237 9237 9237 9236 9234 9233 9231 9230 9229 9229 9228
2658.3916 9226 9225 9224 9224 9223 9224 9224 9224 9223 9223 9221 9219 9217
2664.6592 9215 9213 9211 9210 9209 9208 9207 9206 9205 9205 9206 9206 9205
2670.9268 9203 9201 9198 9195 9193 9193 9193 9193 9194 9195 9195 9194 9192
2677.1943 9189 9186 9183 9180 9179 9179 9179 9180 9180 9179 9179 9179 9180
2683.4617 9182 9184 9186 9187 9186 9185 9182 9179 9176 9173 9171 9171 9170
2689.7292 9170 9168 9165 9162 9161 9161 9162 9165 9167 9168 9168 9167 9167
2695.9968 9166 9165 9163 9161 9160 9159 9160 9161 9162 9161 9160 9158 9156
2702.2644 9155 9155 9156 9157 9158 9157 9157 9156 9154 9153 9152 9151 9149
2708.5317 9146 9144 9142 9140 9138 9138 9138 9138 9139 9140 9141 9142 9144
2714.7993 9145 9147 9147 9148 9148 9147 9147 9148 9149 9150 9151 9150 9149
2721.0669 9146 9143 9141 9141 9141 9142 9143 9143 9142 9141 9141 9142 9145
2727.3345 9148 9151 9152 9152 9151 9149 9148 9148 9149 9150 9151 9151 9151
2733.6018 9151 9151 9152 9152 9151 9149 9146 9144 9143 9145 9148 9151 9153
2739.8694 9154 9154 9153 9154 9154 9155 9155 9156 9156 9158 9159 9161 9162
2746.1370 9162 9162 9160 9158 9156 9153 9151 9150 9151 9154 9156 9159 9159
2752.4045 9159 9158 9157 9157 9158 9160 9162 9165 9167 9169 9170 9170 9170
2758.6719 9169 9169 9169 9170 9170 9170 9169 9168 9168 9168 9168 9169 9168
2764.9395 9167 9165 9165 9167 9170 9173 9177 9178 9177 9175 9173 9171 9170
2771.2070 9170 9171 9171 9170 9169 9166 9164 9164 9165 9168 9172 9176 9180
2777.4746 9181 9182 9181 9180 9179 9178 9178 9178 9178 9178 9178 9178 9178
2783.7419 9178 9178 9179 9180 9182 9184 9186 9187 9186 9184 9181 9179 9178
2790.0095 9179 9181 9182 9183 9183 9182 9181 9181 9181 9180 9178 9177 9175
2796.2771 9175 9176 9177 9179 9180 9180 9180 9178 9176 9174 9170 9167 9164
2802.5447 9163 9165 9167 9170 9173 9173 9172 9170 9168 9168 9168 9170 9171
2808.8120 9172 9172 9172 9173 9174 9175 9175 9173 9171 9169 9168 9167 9166
2815.0796 9165 9165 9164 9164 9163 9163 9162 9159 9156 9154 9153 9154 9156
2821.3472 9157 9157 9155 9153 9151 9149 9148 9146 9144 9141 9139 9138 9139
2827.6147 9141 9143 9144 9144 9143 9140 9137 9133 9130 9127 9126 9127 9128
2833.8821 9130 9131 9132 9132 9132 9130 9128 9124 9121 9118 9118 9119 9121
2840.1497 9122 9121 9120 9119 9117 9114 9110 9106 9102 9099 9098 9097 9097
2846.4172 9096 9095 9094 9094 9095 9096 9098 9098 9099 9099 9099 9100 9101
2852.6848 9102 9104 9106 9107 9107 9106 9103 9100 9096 9092 9088 9085 9084
2858.9521 9085 9088 9091 9094 9096 9096 9095 9092 9090 9087 9085 9082 9080
2865.2197 9079 9079 9079 9080 9081 9081 9082 9082 9082 9082 9083 9083 9083
2871.4873 9081 9078 9072 9067 9062 9059 9059 9060 9061 9062 9061 9059 9058
2877.7549 9056 9053 9050 9044 9038 9032 9026 9021 9018 9017 9016 9015 9015
2884.0222 9013 9010 9006 9001 8997 8994 8992 8991 8990 8989 8988 8984 8980
2890.2898 8977 8974 8974 8976 8978 8980 8979 8975 8969 8963 8957 8954 8953
2896.5574 8954 8956 8957 8957 8956 8954 8950 8946 8943 8940 8939 8938 8938
2902.8250 8936 8934 8930 8926 8921 8917 8913 8910 8907 8904 8901 8899 8897
2909.0923 8897 8896 8896 8894 8891 8887 8883 8880 8879 8881 8883 8884 8883
2915.3599 8880 8876 8871 8868 8865 8863 8862 8862 8862 8862 8863 8865 8867
2921.6274 8868 8869 8869 8868 8866 8864 8863 8863 8865 8867 8868 8869 8868
2927.8950 8867 8866 8868 8871 8877 8882 8886 8888 8888 8886 8885 8884 8884
2934.1624 8885 8886 8886 8885 8883 8881 8878 8876 8874 8872 8870 8867 8864
2940.4299 8860 8855 8851 8847 8846 8845 8846 8845 8844 8840 8836 8834 8834
2946.6975 8836 8838 8839 8838 8835 8831 8827 8826 8825 8824 8821 8817 8812
2952.9651 8805 8799 8793 8788 8784 8782 8781 8780 8780 8779 8777 8775 8773
2959.2324 8771 8772 8773 8776 8778 8778 8776 8770 8764 8757 8750 8744 8739
2965.5000 8735 8731 8727 8724 8721 8717 8713 8708 8702 8696 8689 8682 8675
2971.7676 8670 8666 8664 8665 8667 8670 8671 8669 8664 8657 8649 8641 8636
2978.0352 8634 8634 8635 8635 8635 8634 8633 8632 8633 8632 8631 8627 8620
2984.3025 8613 8606 8600 8596 8594 8593 8593 8591 8590 8589 8589 8589 8590
2990.5701 8591 8592 8591 8590 8589 8589 8591 8594 8600 8605 8609 8610 8609
2996.8376 8607 8604 8601 8599 8596 8591 8584 8575 8565 8555 8547 8542 8541
3003.1052 8544 8549 8554 8558 8560 8559 8556 8553 8550 8549 8549 8549 8547
3009.3726 8544 8541 8538 8538 8540 8543 8547 8550 8552 8553 8553 8553 8553
3015.6401 8553 8553 8551 8548 8544 8541 8539 8537 8535 8532 8528 8523 8518
3021.9077 8514 8513 8513 8514 8513 8512 8510 8508 8508 8510 8511 8512 8511
3028.1753 8509 8506 8504 8502 8499 8495 8489 8484 8481 8481 8485 8490 8494
3034.4426 8495 8492 8487 8480 8473 8468 8464 8462 8462 8462 8463 8462 8460
3040.7102 8456 8452 8447 8444 8441 8441 8440 8438 8435 8428 8419 8409 8400
3046.9778 8394 8391 8390 8390 8391 8391 8390 8388 8386 8384 8383 8383 8384
3053.2454 8385 8387 8387 8385 8381 8376 8371 8366 8364 8362 8361 8360 8358
3059.5127 8355 8352 8348 8345 8342 8340 8340 8341 8343 8346 8348 8349 8348
3065.7803 8346 8345 8344 8343 8341 8339 8335 8332 8330 8328 8326 8323 8318
3072.0479 8311 8303 8296 8290 8285 8281 8279 8278 8279 8280 8282 8285 8287
3078.3154 8289 8289 8289 8288 8285 8281 8278 8274 8272 8271 8271 8271 8271
3084.5828 8271 8270 8269 8268 8269 8269 8269 8267 8264 8261 8257 8255 8252
3090.8503 8250 8249 8248 8247 8247 8246 8244 8240 8235 8230 8226 8223 8223
3097.1179 8224 8225 8226 8226 8225 8225 8223 8221 8216 8210 8202 8196 8191
3103.3855 8188 8187 8187 8186 8185 8183 8182 8182 8181 8180 8179 8178 8177
3109.6528 8175 8173 8171 8169 8168 8169 8171 8173 8175 8175 8173 8169 8164
3115.9204 8158 8153 8149 8147 8146 8144 8140 8135 8130 8125 8122 8121 8120
3122.1880 8120 8119 8118 8116 8114 8110 8105 8099 8092 8087 8084 8084 8085
3128.4556 8087 8090 8092 8096 8100 8103 8104 8102 8095 8084 8073 8062 8055
3134.7229 8052 8052 8053 8056 8057 8058 8057 8056 8054 8054 8057 8061 8065
3140.9905 8068 8067 8062 8055 8048 8042 8038 8034 8029 8024 8019 8014 8012
3147.2581 8011 8010 8011 8012 8015 8019 8022 8025 8025 8024 8022 8019 8017
3153.5256 8014 8010 8004 7998 7992 7988 7986 7987 7990 7994 7998 7999 7998
3159.7930 7995 7990 7985 7978 7972 7965 7959 7954 7950 7949 7952 7956 7962
3166.0605 7968 7972 7974 7974 7973 7971 7969 7966 7963 7958 7953 7947 7942
3172.3281 7937 7933 7931 7930 7931 7932 7933 7932 7931 7929 7927 7925 7924
3178.5957 7923 7920 7918 7915 7913 7912 7913 7915 7915 7914 7911 7907 7902
3184.8630 7899 7898 7899 7901 7901 7900 7896 7889 7883 7877 7874 7874 7875
3191.1306 7877 7878 7877 7875 7874 7873 7874 7876 7877 7878 7878 7876 7873
3197.3982 7868 7862 7857 7853 7851 7851 7850 7848 7845 7839 7834 7830 7829
3203.6658 7829 7829 7830 7831 7832 7834 7837 7840 7842 7843 7842 7841 7839
3209.9331 7837 7834 7831 7828 7826 7824 7824 7824 7825 7826 7826 7826 7824
3216.2007 7821 7816 7811 7807 7805 7805 7806 7808 7809 7809 7808 7808 7808
3222.4683 7811 7814 7816 7818 7818 7819 7819 7817 7813 7807 7800 7795 7792
3228.7358 7793 7796 7798 7799 7800 7801 7804 7809 7814 7818 7819 7818 7816
3235.0032 7814 7811 7809 7806 7804 7803 7804 7805 7807 7809 7809 7808 7806
3241.2708 7803 7801 7798 7797 7796 7796 7796 7796 7796 7796 7798 7799 7799
3247.5383 7799 7798 7798 7797 7797 7796 7795 7795 7795 7796 7798 7800 7803
3253.8059 7804 7805 7806 7806 7806 7807 7808 7808 7808 7807 7807 7808 7809
3260.0732 7812 7815 7817 7817 7815 7812 7808 7806 7806 7809 7813 7818 7820
3266.3408 7820 7818 7815 7813 7812 7812 7815 7821 7829 7837 7843 7847 7847
3272.6084 7846 7843 7841 7839 7838 7838 7837 7838 7839 7841 7843 7843 7844
3278.8760 7845 7846 7848 7851 7855 7857 7860 7861 7863 7864 7864 7864 7863
3285.1433 7861 7859 7857 7855 7853 7853 7855 7858 7861 7865 7868 7871 7871
3291.4109 7870 7867 7863 7858 7856 7855 7857 7861 7865 7868 7871 7875 7879
3297.6785 7883 7887 7888 7888 7888 7888 7890 7893 7894 7892 7888 7882 7877
3303.9460 7874 7874 7875 7878 7881 7884 7886 7887 7887 7887 7886 7884 7884
3310.2134 7883 7884 7886 7889 7894 7899 7903 7904 7903 7900 7896 7893 7891
3316.4810 7890 7890 7889 7887 7885 7883 7882 7882 7883 7883 7884 7886 7887
3322.7485 7890 7891 7892 7891 7889 7887 7886 7886 7888 7891 7893 7893 7890
3329.0161 7885 7878 7873 7872 7874 7879 7884 7888 7889 7887 7883 7880 7876
3335.2834 7874 7872 7872 7871 7870 7868 7866 7863 7861 7859 7858 7858 7858
3341.5510 7858 7860 7862 7865 7867 7868 7866 7863 7859 7855 7851 7850 7850
3347.8186 7851 7853 7855 7856 7857 7857 7857 7857 7856 7855 7855 7854 7854
3354.0862 7855 7855 7855 7855 7854 7854 7853 7852 7852 7852 7852 7853 7854
3360.3535 7856 7858 7860 7861 7861 7860 7858 7856 7856 7858 7860 7862 7862
3366.6211 7861 7859 7858 7859 7861 7863 7865 7867 7869 7873 7878 7882 7882
3372.8887 7880 7876 7873 7871 7873 7877 7881 7884 7886 7887 7888 7889 7891
3379.1563 7892 7894 7895 7894 7893 7892 7890 7888 7887 7886 7884 7883 7882
3385.4236 7882 7884 7889 7894 7900 7904 7907 7909 7910 7910 7910 7909 7906
3391.6912 7903 7900 7898 7897 7896 7896 7895 7893 7892 7892 7894 7899 7904
3397.9587 7910 7914 7916 7916 7915 7914 7914 7915 7916 7917 7918 7920 7924
3404.2263 7929 7935 7940 7942 7940 7936 7928 7921 7915 7913 7914 7919 7927
3410.4937 7934 7941 7944 7946 7946 7945 7944 7945 7945 7947 7949 7951 7954
3416.7612 7957 7960 7961 7960 7960 7959 7958 7958 7960 7964 7970 7977 7984
3423.0288 7990 7995 7998 8000 8002 8005 8009 8012 8014 8015 8015 8013 8012
3429.2964 8010 8010 8011 8015 8020 8029 8038 8048 8056 8062 8064 8063 8061
3435.5637 8059 8059 8061 8064 8068 8070 8072 8072 8073 8076 8081 8086 8092
3441.8313 8098 8103 8106 8108 8110 8111 8113 8118 8124 8132 8141 8148 8152
3448.0989 8154 8155 8156 8158 8160 8163 8165 8167 8170 8174 8179 8185 8190
3454.3665 8195 8197 8198 8197 8197 8198 8202 8208 8218 8229 8240 8249 8255
3460.6338 8259 8261 8262 8263 8263 8263 8262 8262 8263 8266 8272 8280 8289
3466.9014 8297 8304 8309 8313 8316 8319 8321 8323 8324 8325 8327 8328 8328
3473.1689 8327 8324 8322 8322 8326 8332 8340 8346 8349 8351 8354 8359 8366
3479.4365 8373 8378 8378 8373 8365 8358 8353 8353 8356 8361 8368 8375 8381
3485.7039 8385 8389 8390 8390 8389 8390 8393 8399 8408 8418 8428 8436 8440
3491.9714 8441 8439 8437 8434 8433 8434 8435 8438 8443 8448 8455 8464 8473
3498.2390 8482 8490 8497 8503 8509 8514 8518 8520 8521 8521 8521 8522 8524
3504.5066 8527 8532 8537 8544 8551 8556 8559 8558 8557 8557 8560 8566 8573
3510.7739 8579 8584 8587 8591 8596 8604 8612 8618 8622 8624 8626 8627 8630
3517.0415 8634 8638 8642 8646 8651 8656 8660 8664 8666 8666 8664 8662 8661
3523.3091 8664 8670 8678 8687 8696 8704 8709 8713 8717 8722 8728 8736 8742
3529.5767 8746 8747 8746 8745 8745 8748 8754 8760 8767 8772 8775 8778 8782
3535.8440 8787 8794 8802 8811 8819 8825 8830 8832 8832 8829 8826 8824 8823
3542.1116 8824 8827 8828 8829 8828 8829 8832 8838 8849 8861 8872 8881 8885
3548.3792 8887 8886 8885 8886 8889 8895 8903 8911 8918 8922 8923 8922 8920
3554.6467 8919 8920 8924 8933 8943 8953 8960 8963 8963 8961 8961 8963 8967
3560.9141 8970 8972 8971 8968 8966 8963 8960 8957 8953 8948 8944 8943 8948
3567.1816 8960 8978 8997 9013 9023 9027 9027 9026 9025 9026 9031 9037 9046
3573.4492 9055 9061 9064 9061 9054 9047 9044 9046 9055 9067 9076 9081 9082
3579.7168 9080 9079 9079 9080 9081 9081 9080 9081 9082 9085 9086 9083 9076
3585.9844 9065 9054 9048 9049 9058 9071 9086 9099 9111 9119 9125 9127 9127
3592.2517 9125 9124 9125 9130 9139 9148 9156 9159 9159 9156 9153 9152 9152
3598.5193 9153 9153 9153 9154 9156 9160 9165 9170 9175 9179 9185 9193 9200
3604.7869 9205 9207 9206 9203 9202 9204 9207 9211 9215 9219 9223 9226 9229
3611.0544 9228 9225 9220 9217 9219 9226 9235 9243 9248 9252 9255 9259 9263
3617.3218 9265 9264 9260 9257 9261 9273 9291 9309 9324 9332 9335 9334 9332
3623.5894 9329 9327 9325 9324 9324 9323 9321 9317 9309 9299 9292 9296 9311
3629.8569 9330 9347 9360 9370 9379 9386 9393 9397 9399 9400 9403 9407 9412
3636.1245 9418 9425 9431 9438 9445 9451 9457 9460 9460 9458 9455 9454 9456
3642.3918 9462 9469 9475 9479 9481 9481 9482 9486 9492 9500 9505 9504 9493
3648.6594 9476 9457 9444 9446 9463 9486 9507 9522 9532 9538 9542 9544 9545
3654.9270 9543 9538 9534 9534 9543 9556 9570 9582 9591 9594 9594 9591 9589
3661.1946 9588 9587 9585 9582 9578 9574 9574 9577 9583 9592 9600 9606 9606
3667.4619 9600 9589 9576 9566 9563 9567 9575 9582 9588 9593 9597 9599 9596
3673.7295 9586 9564 9534 9519 9533 9564 9593 9615 9630 9637 9639 9635 9627
3679.9971 9620 9614 9612 9612 9614 9619 9625 9632 9640 9648 9654 9659 9660
3686.2646 9659 9653 9642 9626 9610 9600 9597 9600 9606 9614 9622 9627 9631
3692.5320 9632 9631 9630 9630 9629 9629 9627 9625 9623 9621 9621 9624 9628
3698.7996 9634 9641 9646 9647 9642 9631 9619 9610 9609 9612 9617 9623 9627
3705.0671 9631 9633 9634 9632 9628 9620 9612 9605 9603 9604 9608 9608 9603
3711.3347 9595 9589 9591 9599 9609 9619 9628 9636 9642 9645 9644 9639 9630
3717.6021 9621 9613 9610 9610 9612 9613 9610 9604 9598 9594 9593 9595 9597
3723.8696 9595 9591 9584 9578 9578 9583 9591 9598 9600 9598 9594 9588 9584
3730.1372 9580 9578 9577 9578 9581 9586 9588 9586 9578 9566 9558 9559 9569
3736.4048 9583 9594 9602 9606 9608 9609 9609 9609 9608 9609 9612 9616 9619
3742.6721 9618 9611 9594 9574 9563 9567 9575 9582 9586 9588 9589 9590 9595
3748.9397 9602 9611 9618 9619 9612 9599 9585 9578 9580 9587 9594 9600 9602
3755.2073 9601 9598 9595 9594 9594 9596 9597 9598 9599 9602 9607 9614 9621
3761.4749 9628 9635 9640 9643 9642 9636 9626 9613 9603 9597 9597 9601 9605
3767.7422 9607 9607 9605 9603 9602 9601 9602 9603 9605 9610 9615 9621 9626
3774.0098 9628 9626 9622 9618 9616 9618 9621 9624 9624 9620 9610 9599 9592
3780.2773 9590 9594 9601 9609 9615 9617 9615 9610 9604 9601 9600 9603 9607
3786.5449 9611 9614 9616 9618 9619 9620 9621 9621 9621 9621 9622 9625 9630
3792.8123 9635 9638 9638 9634 9625 9612 9599 9588 9584 9584 9586 9588 9589
3799.0798 9587 9585 9581 9576 9573 9576 9583 9592 9600 9605 9606 9606 9603
3805.3474 9600 9597 9594 9591 9589 9588 9588 9590 9592 9594 9596 9597 9599
3811.6150 9601 9604 9607 9607 9605 9600 9594 9587 9582 9580 9581 9584 9588
3817.8823 9591 9593 9590 9583 9572 9559 9555 9564 9578 9591 9599 9603 9603
3824.1499 9602 9598 9593 9589 9587 9588 9592 9596 9599 9598 9594 9588 9581
3830.4175 9575 9573 9576 9582 9588 9588 9584 9576 9566 9560 9558 9559 9560
3836.6851 9559 9557 9556 9556 9557 9558 9559 9559 9560 9563 9566 9567 9565
3842.9524 9562 9559 9560 9564 9571 9580 9589 9598 9606 9612 9614 9614 9611
3849.2200 9607 9604 9600 9595 9587 9574 9554 9527 9503 9498 9510 9529 9546
3855.4875 9559 9567 9572 9574 9576 9579 9584 9589 9593 9596 9595 9590 9582
3861.7551 9575 9571 9571 9573 9575 9575 9572 9570 9569 9570 9571 9571 9568
3868.0225 9562 9554 9546 9544 9550 9559 9566 9570 9570 9566 9560 9555 9555
3874.2900 9562 9573 9583 9589 9591 9589 9584 9576 9566 9554 9541 9532 9531
3880.5576 9539 9551 9563 9572 9577 9579 9577 9571 9561 9549 9542 9542 9550
3886.8252 9562 9572 9579 9583 9583 9580 9575 9569 9564 9562 9562 9564 9565
3893.0925 9565 9567 9569 9572 9576 9578 9578 9575 9571 9566 9560 9555 9550
3899.3601 9547 9543 9539 9535 9533 9535 9541 9547 9551 9550 9547 9545 9548
3905.6277 9554 9563 9570 9575 9577 9579 9581 9584 9587 9589 9589 9588 9586
3911.8953 9584 9583 9581 9578 9576 9574 9572 9569 9566 9561 9554 9549 9546
3918.1626 9546 9549 9553 9559 9567 9574 9580 9584 9584 9579 9571 9562 9555
3924.4302 9554 9557 9563 9570 9574 9575 9574 9571 9567 9563 9560 9558 9555
3930.6978 9553 9550 9548 9547 9548 9551 9555 9561 9568 9573 9577 9578 9575
3936.9653 9570 9566 9563 9564 9566 9567 9566 9562 9556 9550 9545 9542 9542
3943.2327 9544 9547 9552 9558 9562 9565 9563 9558 9553 9550 9552 9556 9561
3949.5002 9565 9566 9566 9567 9568 9570 9570 9570 9569 9567 9564 9561 9557
3955.7678 9554 9555 9559 9565 9573 9579 9582 9583 9581 9578 9573 9568 9564
3962.0354 9563 9565 9569 9572 9574 9572 9568 9564 9560 9559 9559 9561 9564
3968.3027 9567 9571 9573 9573 9571 9567 9563 9561 9560 9561 9562 9562 9560
3974.5703 9558 9555 9554 9554 9556 9558 9560 9560 9558 9554 9550 9548 9550
3980.8379 9555 9561 9566 9568 9567 9564 9560 9558 9558 9558 9560 9560 9561
3987.1055 9561 9562 9563 9563 9563 9562 9559 9556 9553 9551 9551 9553 9558
3993.3728 9563 9568 9571 9572 9572 9570 9567 9566 9566 9567 9567 9565 9562
3999.6404 9558 9555
##END= 
