##TITLE= STDSODIOCITRATO
##JCAMP-DX= 4.24
##DATA TYPE= INFRARED SPECTRUM
##ORIGIN= JASCO
##OWNER= 
##DATE= 22/04/21
##TIME= 16:22:45
##SPECTROMETER/DATA SYSTEM= 
##RESOLUTION= 
##DELTAX=   0.48211674
##XUNITS= 1/CM
##YUNITS= TRANSMITTANCE
##XFACTOR= 1.00000
##YFACTOR= 0.0001
##FIRSTX=   599.7532
##LASTX=  4000.1226
##NPOINTS=     7054
##FIRSTY=      0.65045
##MAXY=      1.07595
##MINY=      0.53505
##XYDATA= (X++(Y..Y))
599.7532 6505 6578 6634 6672 6692 6697 6691 6682 6673 6667 6661 6656 6647 6634
606.5029 6614 6581 6536 6480 6421 6365 6316 6271 6223 6167 6100 6024 5941 5852
613.2525 5753 5647 5539 5445 5378 5351 5362 5401 5453 5505 5556 5614 5689 5785
620.0021 5896 6007 6104 6180 6240 6295 6352 6413 6472 6522 6564 6603 6646 6692
626.7518 6733 6756 6753 6728 6695 6672 6671 6695 6738 6787 6830 6859 6869 6860
633.5014 6840 6821 6815 6829 6859 6892 6910 6904 6875 6833 6796 6778 6788 6825
640.2510 6880 6939 6990 7026 7046 7054 7058 7062 7066 7070 7074 7082 7098 7125
647.0007 7164 7207 7246 7276 7295 7305 7312 7318 7325 7334 7347 7362 7379 7394
653.7503 7402 7405 7407 7417 7442 7483 7536 7588 7630 7661 7686 7712 7746 7785
660.4999 7822 7846 7855 7850 7843 7841 7851 7871 7895 7916 7928 7933 7931 7925
667.2496 7919 7920 7932 7941 7932 7907 7869 7822 7773 7732 7711 7722 7768 7841
673.9992 7930 8017 8086 8126 8139 8138 8147 8187 8263 8363 8455 8511 8519 8496
680.7488 8472 8476 8521 8595 8675 8742 8785 8804 8806 8799 8785 8767 8745 8722
687.4985 8696 8668 8641 8618 8607 8613 8636 8667 8697 8715 8719 8712 8700 8685
694.2481 8666 8635 8587 8528 8470 8434 8428 8453 8494 8533 8557 8564 8559 8553
700.9977 8552 8559 8572 8588 8603 8612 8610 8595 8567 8532 8499 8476 8464 8461
707.7474 8461 8459 8453 8446 8443 8448 8460 8475 8484 8481 8463 8431 8392 8354
714.4970 8325 8309 8307 8317 8331 8341 8336 8315 8279 8235 8190 8151 8116 8085
721.2466 8056 8032 8014 8006 8004 8003 7996 7979 7953 7922 7893 7867 7847 7833
727.9963 7827 7830 7844 7867 7893 7921 7950 7981 8018 8059 8098 8127 8144 8149
734.7459 8150 8152 8160 8169 8175 8173 8159 8136 8106 8074 8043 8016 7995 7982
741.4955 7977 7977 7978 7975 7964 7942 7911 7876 7843 7818 7804 7801 7804 7810
748.2452 7811 7807 7796 7782 7765 7747 7730 7719 7715 7720 7731 7743 7754 7763
754.9948 7774 7790 7812 7840 7872 7907 7945 7984 8021 8051 8074 8091 8108 8131
761.7444 8163 8200 8238 8270 8296 8319 8343 8373 8410 8451 8492 8531 8564 8589
768.4941 8606 8615 8620 8622 8624 8628 8632 8637 8643 8651 8661 8672 8683 8694
775.2437 8704 8714 8723 8734 8746 8760 8774 8788 8803 8820 8842 8866 8892 8916
781.9933 8934 8945 8950 8952 8956 8962 8971 8982 8993 9001 9008 9011 9012 9012
788.7430 9011 9008 9004 8999 8994 8992 8993 8999 9007 9016 9023 9028 9031 9032
795.4926 9031 9028 9023 9014 9003 8990 8975 8961 8946 8933 8920 8909 8900 8892
802.2422 8882 8870 8855 8841 8833 8832 8840 8852 8863 8873 8883 8896 8915 8941
808.9919 8969 8994 9015 9032 9051 9073 9100 9130 9160 9188 9217 9247 9281 9320
815.7415 9362 9406 9449 9491 9531 9568 9602 9632 9657 9676 9688 9691 9687 9679
822.4911 9670 9664 9664 9670 9679 9690 9701 9712 9724 9737 9748 9752 9746 9727
829.2408 9692 9646 9588 9522 9446 9361 9268 9171 9076 8987 8911 8852 8812 8786
835.9904 8769 8750 8721 8678 8620 8547 8460 8357 8240 8114 7989 7879 7799 7756
842.7401 7754 7790 7859 7952 8066 8192 8324 8456 8582 8701 8809 8908 8995 9071
849.4897 9137 9195 9247 9297 9344 9388 9428 9461 9488 9509 9527 9545 9565 9586
856.2393 9609 9629 9648 9664 9680 9694 9707 9716 9720 9721 9721 9724 9731 9744
862.9890 9758 9772 9784 9794 9803 9810 9816 9819 9821 9822 9822 9821 9819 9816
869.7386 9813 9810 9810 9813 9818 9824 9831 9837 9843 9850 9856 9863 9869 9871
876.4882 9870 9864 9855 9845 9836 9830 9826 9824 9824 9825 9827 9827 9823 9813
883.2379 9798 9782 9765 9752 9743 9737 9731 9723 9712 9696 9676 9648 9609 9555
889.9875 9484 9396 9293 9178 9058 8940 8835 8753 8706 8698 8730 8794 8877 8966
896.7371 9052 9127 9190 9239 9274 9294 9300 9291 9268 9232 9185 9127 9059 8986
903.4868 8909 8835 8766 8706 8656 8620 8597 8589 8600 8632 8685 8759 8849 8948
910.2364 9049 9149 9245 9339 9431 9523 9611 9693 9765 9825 9873 9911 9943 9971
916.9860 9999 10025 10049 10067 10080 10088 10093 10099 10106 10117 10129
922.2893 10142 10153 10164 10175 10188 10203 10217 10229 10235 10237 10236
927.5926 10234 10235 10238 10242 10246 10247 10247 10247 10247 10249 10251
932.8959 10253 10254 10252 10250 10246 10243 10238 10234 10228 10220 10208
938.1992 10191 10170 10147 10122 10096 10067 10034 9992 9939 9878 9815 9758
943.9846 9717 9695 9696 9715 9747 9785 9823 9859 9889 9914 9930 9935 9924 9895
950.7342 9848 9790 9731 9683 9657 9662 9698 9762 9844 9932 10015 10086 10142
957.0017 10182 10210 10230 10247 10265 10285 10307 10330 10351 10368 10381
962.3050 10390 10398 10406 10415 10425 10436 10445 10450 10450 10447 10442
967.6083 10435 10427 10421 10415 10411 10411 10413 10419 10425 10430 10433
972.9116 10434 10434 10434 10435 10438 10442 10446 10450 10451 10452 10450
978.2148 10448 10447 10449 10454 10462 10473 10482 10490 10495 10499 10504
983.5181 10509 10515 10521 10527 10533 10539 10547 10555 10563 10567 10567
988.8214 10564 10559 10554 10552 10551 10549 10547 10544 10541 10541 10544
994.1247 10550 10558 10566 10574 10580 10586 10591 10598 10605 10613 10620
999.4280 10625 10627 10627 10626 10623 10619 10614 10611 10612 10619 10632
1004.7313 10652 10673 10693 10707 10713 10709 10695 10672 10642 10612 10585
1010.0345 10566 10556 10553 10556 10562 10569 10577 10586 10594 10600 10605
1015.3378 10608 10612 10617 10623 10630 10637 10644 10650 10656 10662 10668
1020.6411 10673 10676 10677 10677 10676 10675 10673 10671 10667 10662 10657
1025.9445 10655 10656 10661 10671 10682 10692 10698 10700 10699 10699 10702
1031.2477 10709 10718 10726 10730 10730 10727 10724 10725 10728 10733 10738
1036.5510 10743 10747 10750 10753 10756 10758 10759 10759 10758 10755 10751
1041.8542 10747 10744 10744 10747 10751 10755 10754 10749 10742 10733 10727
1047.1576 10722 10719 10715 10708 10699 10687 10673 10657 10639 10617 10592
1052.4608 10564 10533 10502 10471 10443 10417 10393 10369 10343 10314 10285
1057.7642 10256 10229 10203 10177 10146 10108 10062 10010 9953 9895 9839 9790
1063.5496 9752 9731 9731 9751 9789 9839 9894 9952 10010 10069 10126 10179
1069.3350 10224 10258 10277 10282 10275 10257 10230 10194 10146 10085 10008
1074.6382 9915 9808 9692 9569 9441 9312 9187 9079 9002 8974 9004 9093 9230
1080.9058 9396 9571 9738 9889 10017 10124 10209 10274 10321 10351 10368 10374
1086.6912 10375 10372 10368 10365 10363 10362 10361 10360 10357 10351 10343
1091.9944 10331 10317 10304 10293 10287 10285 10287 10292 10297 10303 10307
1097.2977 10310 10313 10316 10320 10327 10336 10348 10363 10379 10393 10404
1102.6010 10409 10409 10405 10401 10398 10397 10400 10403 10407 10410 10413
1107.9043 10416 10423 10431 10441 10451 10460 10468 10474 10480 10485 10489
1113.2075 10491 10491 10488 10483 10476 10467 10457 10446 10437 10429 10422
1118.5109 10416 10407 10393 10373 10347 10319 10291 10267 10246 10228 10209
1123.8141 10187 10162 10133 10102 10069 10036 10003 9972 9943 9917 9893 9870
1129.5995 9847 9822 9796 9769 9744 9721 9701 9681 9659 9636 9610 9583 9555
1135.8671 9528 9500 9471 9443 9416 9392 9370 9348 9327 9304 9282 9260 9241
1142.1345 9223 9207 9190 9172 9151 9127 9102 9075 9047 9017 8987 8956 8924
1148.4021 8890 8853 8812 8770 8728 8687 8646 8606 8564 8520 8473 8427 8385
1154.6696 8350 8325 8312 8310 8319 8339 8370 8412 8465 8528 8599 8678 8761
1160.9371 8848 8938 9030 9120 9206 9285 9356 9419 9475 9527 9575 9619 9661
1167.2046 9698 9731 9760 9784 9803 9820 9836 9851 9865 9876 9884 9887 9887
1173.4722 9884 9881 9879 9875 9871 9864 9854 9844 9832 9820 9807 9794 9781
1179.7396 9766 9750 9734 9718 9701 9684 9667 9648 9627 9605 9581 9557 9532
1186.0072 9505 9477 9445 9407 9364 9316 9263 9206 9145 9082 9016 8950 8887
1192.2747 8832 8793 8776 8785 8824 8889 8976 9076 9179 9278 9367 9443 9506
1198.5422 9557 9598 9633 9662 9687 9706 9722 9733 9743 9752 9760 9768 9772
1204.8097 9774 9772 9767 9761 9756 9751 9748 9746 9746 9748 9751 9753 9753
1211.0773 9749 9742 9733 9723 9715 9708 9701 9693 9685 9676 9669 9664 9661
1217.3447 9659 9655 9650 9642 9632 9624 9617 9612 9609 9607 9603 9598 9592
1223.6123 9586 9578 9569 9558 9544 9528 9510 9492 9474 9455 9436 9417 9398
1229.8798 9378 9357 9334 9312 9289 9269 9250 9233 9215 9194 9172 9150 9128
1236.1473 9110 9094 9079 9063 9047 9029 9011 8993 8976 8960 8944 8928 8909
1242.4148 8889 8867 8844 8820 8797 8774 8753 8732 8711 8690 8669 8647 8626
1248.6824 8607 8589 8571 8553 8532 8511 8488 8465 8442 8418 8394 8368 8341
1254.9498 8314 8287 8259 8232 8204 8174 8142 8109 8075 8042 8008 7972 7932
1261.2174 7888 7840 7787 7732 7675 7615 7554 7489 7421 7352 7283 7215 7147
1267.4849 7079 7012 6949 6894 6854 6832 6831 6851 6891 6943 7003 7063 7117
1273.7524 7161 7192 7209 7212 7203 7183 7154 7118 7077 7033 6986 6938 6892
1280.0199 6850 6817 6798 6799 6823 6872 6949 7051 7177 7321 7479 7645 7813
1286.2875 7977 8135 8281 8414 8530 8629 8710 8775 8825 8863 8891 8908 8915
1292.5549 8912 8898 8873 8836 8789 8731 8664 8588 8504 8413 8315 8209 8094
1298.8225 7970 7839 7702 7563 7425 7290 7164 7052 6959 6893 6860 6864 6906
1305.0900 6986 7101 7245 7416 7606 7811 8024 8236 8437 8621 8781 8918 9031
1311.3575 9122 9195 9252 9293 9322 9342 9355 9364 9371 9376 9381 9385 9387
1317.6250 9385 9380 9371 9359 9345 9331 9319 9307 9296 9285 9273 9260 9247
1323.8926 9234 9221 9209 9197 9186 9174 9162 9150 9137 9122 9107 9091 9075
1330.1600 9060 9045 9031 9018 9004 8991 8978 8963 8949 8933 8917 8900 8882
1336.4276 8865 8848 8830 8812 8792 8772 8752 8733 8715 8698 8682 8665 8649
1342.6951 8634 8617 8600 8582 8562 8541 8520 8498 8477 8456 8435 8414 8393
1348.9626 8371 8348 8325 8301 8278 8255 8232 8208 8182 8156 8128 8100 8073
1355.2301 8047 8023 7997 7970 7940 7909 7877 7846 7814 7780 7745 7709 7671
1361.4977 7632 7593 7553 7512 7474 7439 7406 7373 7340 7305 7268 7230 7192
1367.7651 7155 7117 7078 7038 6997 6954 6910 6864 6816 6766 6714 6657 6594
1374.0327 6527 6459 6395 6334 6276 6218 6159 6098 6037 5978 5921 5867 5814
1380.3002 5762 5714 5669 5627 5589 5555 5524 5497 5476 5461 5452 5450 5454
1386.5677 5465 5480 5500 5522 5543 5564 5585 5607 5629 5651 5672 5691 5709
1392.8352 5728 5749 5774 5806 5847 5895 5948 6001 6054 6105 6156 6205 6249
1399.1028 6282 6304 6318 6331 6347 6369 6401 6441 6491 6556 6643 6755 6886
1405.3702 7020 7138 7230 7295 7336 7352 7343 7310 7258 7195 7127 7059 6994
1411.6378 6934 6880 6835 6798 6769 6746 6729 6716 6707 6702 6701 6702 6706
1417.9053 6714 6732 6765 6812 6861 6903 6936 6964 6991 7020 7054 7096 7144
1424.1729 7192 7235 7271 7303 7331 7356 7379 7399 7418 7435 7453 7473 7493
1430.4403 7511 7525 7536 7544 7551 7557 7562 7565 7564 7560 7553 7545 7535
1436.7079 7526 7519 7514 7511 7508 7506 7507 7514 7528 7551 7585 7627 7679
1442.9753 7738 7805 7878 7956 8034 8110 8182 8253 8326 8404 8488 8569 8638
1449.2429 8693 8739 8779 8817 8855 8893 8930 8965 8995 9021 9041 9056 9067
1455.5104 9076 9086 9106 9137 9173 9204 9227 9242 9253 9262 9270 9278 9285
1461.7780 9292 9298 9303 9308 9315 9326 9340 9356 9371 9382 9391 9399 9407
1468.0454 9415 9424 9431 9437 9440 9440 9439 9436 9435 9439 9448 9457 9463
1474.3130 9466 9466 9468 9473 9482 9493 9503 9511 9515 9517 9518 9520 9523
1480.5804 9526 9531 9536 9542 9547 9553 9559 9564 9570 9574 9578 9581 9585
1486.8480 9588 9592 9594 9594 9592 9591 9591 9594 9598 9602 9603 9602 9599
1493.1155 9594 9589 9584 9577 9570 9563 9558 9555 9555 9557 9557 9555 9550
1499.3831 9540 9528 9512 9494 9474 9453 9434 9419 9409 9403 9399 9393 9385
1505.6505 9374 9366 9371 9385 9395 9396 9390 9379 9369 9360 9352 9345 9337
1511.9181 9325 9312 9299 9287 9275 9264 9253 9240 9225 9207 9189 9173 9161
1518.1855 9153 9145 9136 9123 9105 9082 9056 9037 9027 9022 9017 9010 9001
1524.4531 8987 8967 8943 8916 8892 8870 8850 8830 8809 8787 8765 8743 8720
1530.7206 8696 8671 8646 8621 8595 8566 8537 8510 8484 8459 8433 8407 8380
1536.9882 8354 8329 8303 8272 8230 8183 8148 8128 8110 8086 8053 8015 7979
1543.2556 7947 7919 7894 7871 7850 7832 7816 7801 7785 7768 7749 7727 7701
1549.5232 7670 7636 7601 7568 7537 7507 7477 7443 7402 7354 7305 7265 7235
1555.7906 7212 7191 7169 7143 7106 7050 6964 6873 6808 6764 6731 6701 6673
1562.0582 6643 6611 6574 6532 6486 6438 6390 6345 6306 6271 6238 6207 6173
1568.3257 6129 6072 6001 5932 5880 5844 5815 5786 5753 5719 5686 5657 5633
1574.5933 5608 5574 5522 5457 5400 5369 5357 5353 5352 5353 5357 5364 5375
1580.8607 5389 5406 5426 5448 5470 5494 5517 5541 5566 5593 5622 5653 5686
1587.1283 5722 5762 5805 5853 5903 5956 6011 6066 6120 6175 6230 6285 6341
1593.3959 6398 6457 6518 6578 6636 6692 6746 6798 6849 6900 6948 6995 7039
1599.6633 7080 7118 7155 7191 7226 7261 7295 7329 7360 7389 7417 7445 7476
1605.9309 7509 7544 7580 7616 7653 7690 7730 7774 7821 7870 7919 7968 8018
1612.1984 8070 8124 8179 8232 8279 8319 8356 8393 8440 8503 8569 8625 8668
1618.4659 8705 8740 8777 8815 8852 8885 8913 8937 8963 8993 9030 9066 9096
1624.7334 9117 9132 9144 9155 9165 9176 9187 9198 9209 9220 9233 9248 9264
1631.0010 9283 9303 9322 9338 9350 9358 9364 9370 9382 9404 9431 9454 9469
1637.2684 9479 9484 9486 9486 9484 9481 9479 9477 9477 9476 9474 9470 9464
1643.5360 9457 9449 9441 9435 9429 9427 9427 9427 9425 9418 9408 9396 9384
1649.8035 9373 9362 9350 9335 9315 9288 9261 9262 9291 9314 9325 9328 9327
1656.0710 9324 9320 9316 9313 9313 9316 9321 9326 9330 9332 9334 9337 9342
1662.3385 9351 9362 9373 9380 9386 9391 9397 9405 9414 9420 9423 9424 9424
1668.6061 9426 9434 9448 9463 9477 9488 9497 9502 9505 9506 9507 9511 9519
1674.8735 9533 9550 9563 9571 9577 9582 9589 9598 9610 9626 9643 9661 9676
1681.1411 9687 9694 9696 9695 9696 9709 9749 9802 9836 9851 9856 9857 9857
1687.4086 9857 9859 9864 9872 9883 9895 9907 9918 9926 9932 9935 9935 9934
1693.6761 9931 9929 9929 9933 9943 9955 9964 9967 9967 9966 9963 9961 9964
1699.9436 9978 9999 10012 10013 10009 10004 9998 9994 9992 9992 9995 10000
1705.7290 10006 10012 10018 10021 10022 10021 10019 10017 10018 10021 10026
1711.0323 10030 10032 10031 10027 10021 10016 10011 10010 10010 10010 10009
1716.3356 10005 10002 10004 10016 10034 10049 10056 10058 10055 10051 10046
1721.6389 10042 10040 10041 10044 10047 10049 10051 10053 10055 10058 10060
1726.9421 10062 10063 10061 10059 10056 10053 10051 10050 10050 10050 10049
1732.2455 10047 10043 10040 10040 10046 10054 10060 10062 10061 10058 10054
1737.5487 10049 10045 10044 10045 10048 10050 10049 10047 10045 10043 10043
1742.8521 10045 10048 10052 10056 10059 10062 10063 10062 10059 10054 10051
1748.1553 10048 10048 10047 10047 10045 10044 10044 10047 10051 10056 10059
1753.4586 10062 10063 10064 10065 10065 10065 10065 10066 10067 10069 10070
1758.7618 10071 10071 10071 10070 10070 10070 10070 10072 10072 10072 10072
1764.0652 10071 10072 10073 10076 10079 10082 10084 10085 10086 10085 10084
1769.3684 10083 10080 10076 10070 10064 10060 10063 10072 10083 10093 10099
1774.6718 10101 10100 10097 10094 10092 10091 10091 10092 10092 10092 10093
1779.9750 10095 10097 10099 10100 10098 10097 10095 10096 10099 10103 10108
1785.2783 10112 10112 10110 10106 10101 10096 10092 10091 10090 10090 10089
1790.5815 10086 10082 10080 10081 10088 10096 10103 10107 10109 10109 10109
1795.8849 10107 10106 10104 10104 10104 10105 10107 10109 10110 10110 10107
1801.1881 10105 10102 10100 10099 10099 10101 10104 10107 10110 10111 10110
1806.4915 10109 10107 10108 10110 10114 10118 10121 10122 10122 10122 10123
1811.7947 10125 10127 10129 10128 10126 10124 10123 10124 10126 10129 10132
1817.0980 10134 10134 10134 10134 10134 10133 10133 10132 10132 10133 10135
1822.4012 10136 10135 10133 10130 10127 10125 10126 10128 10130 10131 10130
1827.7046 10127 10122 10117 10112 10110 10110 10113 10115 10117 10117 10118
1833.0078 10120 10124 10130 10139 10147 10154 10157 10154 10147 10138 10130
1838.3112 10124 10124 10127 10133 10139 10141 10137 10129 10118 10106 10099
1843.6144 10099 10107 10119 10128 10131 10131 10129 10127 10128 10131 10137
1848.9177 10143 10147 10147 10144 10138 10132 10127 10126 10129 10135 10141
1854.2209 10146 10150 10151 10150 10148 10145 10143 10142 10144 10149 10154
1859.5243 10158 10157 10151 10142 10134 10131 10134 10140 10146 10152 10154
1864.8275 10156 10156 10156 10155 10152 10149 10146 10146 10149 10156 10163
1870.1309 10168 10171 10171 10171 10170 10168 10165 10161 10157 10152 10149
1875.4341 10148 10150 10154 10160 10164 10164 10161 10156 10153 10155 10161
1880.7374 10168 10174 10174 10169 10162 10156 10154 10157 10161 10163 10161
1886.0406 10154 10147 10143 10144 10151 10160 10170 10178 10180 10178 10173
1891.3440 10168 10167 10169 10176 10184 10190 10189 10182 10172 10164 10163
1896.6472 10167 10174 10179 10180 10175 10167 10159 10154 10152 10154 10158
1901.9506 10163 10167 10169 10170 10171 10175 10182 10190 10198 10204 10206
1907.2538 10206 10204 10201 10198 10193 10185 10172 10155 10136 10121 10111
1912.5571 10110 10117 10131 10149 10168 10184 10195 10199 10193 10175 10147
1917.8604 10114 10089 10079 10085 10102 10121 10136 10144 10147 10148 10153
1923.1637 10164 10177 10188 10194 10193 10187 10178 10166 10153 10142 10135
1928.4669 10134 10143 10158 10179 10200 10218 10229 10230 10220 10199 10173
1933.7703 10146 10126 10116 10113 10116 10121 10127 10137 10153 10176 10203
1939.0735 10228 10246 10253 10253 10249 10245 10239 10227 10203 10168 10127
1944.3768 10092 10069 10064 10076 10099 10125 10145 10158 10161 10155 10142
1949.6801 10124 10108 10103 10113 10139 10176 10211 10235 10243 10236 10217
1954.9834 10195 10173 10154 10138 10126 10116 10107 10098 10088 10076 10061
1960.2866 10044 10028 10017 10015 10028 10059 10105 10160 10214 10262 10301
1965.5900 10336 10370 10398 10411 10395 10346 10273 10193 10124 10077 10057
1970.8932 10057 10070 10086 10098 10105 10112 10121 10133 10145 10154 10156
1976.1965 10152 10143 10129 10110 10083 10052 10029 10028 10057 10111 10175
1981.4998 10231 10264 10275 10272 10264 10257 10250 10241 10227 10212 10196
1986.8031 10178 10152 10115 10072 10036 10024 10044 10091 10148 10196 10219
1992.1063 10217 10205 10198 10202 10210 10211 10196 10168 10135 10109 10098
1997.4097 10102 10118 10141 10168 10197 10229 10259 10280 10287 10275 10247
2002.7129 10210 10173 10141 10119 10104 10097 10098 10109 10132 10165 10201
2008.0162 10231 10247 10245 10230 10210 10194 10188 10188 10187 10176 10152
2013.3195 10118 10084 10056 10043 10044 10060 10086 10116 10141 10155 10159
2018.6228 10158 10158 10164 10171 10169 10149 10113 10075 10052 10058 10092
2023.9260 10138 10182 10212 10228 10236 10242 10246 10241 10220 10182 10130
2029.2294 10075 10029 10000 9992 10000 10019 10042 10066 10090 10116 10142
2034.5326 10161 10166 10152 10121 10085 10057 10049 10066 10100 10137 10164
2039.8359 10171 10160 10142 10130 10132 10146 10160 10162 10146 10118 10089
2045.1392 10072 10075 10095 10125 10156 10182 10204 10222 10233 10236 10230
2050.4424 10217 10203 10190 10179 10168 10152 10136 10127 10132 10153 10184
2055.7458 10210 10222 10216 10199 10181 10172 10177 10193 10211 10225 10228
2061.0491 10218 10199 10176 10158 10154 10169 10201 10239 10270 10281 10272
2066.3523 10248 10221 10199 10187 10185 10189 10193 10197 10199 10201 10203
2071.6555 10205 10205 10204 10201 10198 10197 10198 10203 10209 10215 10219
2076.9590 10221 10224 10227 10231 10232 10227 10216 10201 10186 10175 10171
2082.2622 10172 10178 10187 10197 10208 10218 10226 10227 10221 10210 10197
2087.5654 10187 10185 10191 10205 10220 10232 10236 10232 10223 10214 10210
2092.8687 10212 10218 10224 10226 10226 10224 10224 10226 10228 10228 10225
2098.1721 10217 10207 10197 10188 10183 10182 10187 10200 10218 10237 10250
2103.4753 10255 10250 10238 10224 10211 10202 10198 10196 10195 10191 10184
2108.7786 10175 10169 10173 10190 10219 10249 10270 10274 10260 10238 10216
2114.0818 10204 10200 10201 10202 10201 10202 10207 10216 10227 10233 10230
2119.3853 10219 10205 10192 10185 10184 10188 10193 10199 10205 10210 10213
2124.6885 10215 10217 10222 10233 10250 10268 10285 10296 10302 10309 10317
2129.9917 10329 10339 10340 10329 10306 10275 10247 10229 10226 10238 10261
2135.2949 10288 10310 10321 10317 10299 10275 10254 10246 10255 10278 10303
2140.5984 10318 10316 10299 10274 10255 10251 10264 10288 10311 10321 10312
2145.9016 10284 10244 10206 10183 10183 10204 10238 10275 10303 10319 10324
2151.2048 10327 10334 10347 10367 10384 10390 10377 10344 10299 10258 10240
2156.5081 10255 10303 10370 10432 10467 10466 10439 10403 10372 10348 10323
2161.8115 10288 10245 10203 10172 10157 10154 10150 10139 10122 10107 10107
2167.1147 10128 10167 10213 10254 10282 10294 10293 10280 10258 10227 10189
2172.4180 10150 10118 10104 10114 10146 10194 10244 10282 10298 10289 10257
2177.7212 10209 10155 10109 10081 10079 10105 10152 10206 10249 10268 10257
2183.0247 10222 10173 10125 10087 10062 10050 10051 10064 10087 10117 10149
2188.3279 10174 10187 10186 10177 10168 10165 10167 10168 10164 10153 10145
2193.6311 10148 10168 10201 10235 10253 10250 10226 10194 10167 10153 10151
2198.9343 10154 10156 10156 10157 10164 10179 10195 10202 10189 10155 10108
2204.2378 10063 10033 10027 10038 10056 10070 10072 10067 10063 10071 10095
2209.5410 10134 10177 10209 10222 10212 10187 10160 10139 10130 10127 10122
2214.8442 10111 10094 10079 10076 10089 10113 10137 10152 10154 10146 10137
2220.1475 10132 10134 10137 10137 10130 10118 10105 10099 10101 10111 10126
2225.4509 10140 10147 10144 10135 10125 10119 10119 10123 10123 10115 10100
2230.7542 10085 10078 10085 10103 10123 10135 10133 10120 10101 10087 10081
2236.0574 10082 10086 10087 10083 10075 10065 10058 10055 10056 10057 10056
2241.3606 10052 10046 10040 10037 10039 10043 10049 10052 10054 10055 10058
2246.6641 10065 10075 10087 10098 10106 10108 10106 10100 10091 10082 10073
2251.9673 10065 10059 10058 10060 10064 10070 10077 10083 10087 10089 10088
2257.2705 10085 10080 10076 10073 10072 10074 10079 10086 10094 10100 10104
2262.5737 10104 10102 10099 10096 10092 10085 10075 10064 10058 10060 10072
2267.8772 10088 10102 10110 10111 10109 10108 10112 10116 10119 10116 10109
2273.1804 10103 10103 10108 10114 10115 10107 10092 10078 10070 10073 10086
2278.4836 10101 10115 10124 10129 10131 10130 10127 10121 10114 10108 10106
2283.7869 10109 10115 10119 10120 10118 10114 10111 10110 10111 10112 10112
2289.0903 10111 10111 10112 10114 10114 10113 10110 10106 10103 10104 10107
2294.3936 10113 10119 10125 10132 10138 10143 10146 10145 10141 10134 10128
2299.6968 10124 10122 10122 10124 10125 10126 10128 10131 10134 10136 10138
2305.0000 10138 10138 10140 10146 10155 10165 10175 10179 10177 10168 10155
2310.3035 10144 10139 10139 10144 10149 10151 10148 10143 10138 10136 10139
2315.6067 10144 10151 10157 10162 10163 10162 10156 10147 10136 10126 10120
2320.9099 10118 10120 10122 10123 10121 10117 10113 10110 10109 10111 10114
2326.2131 10119 10125 10132 10139 10146 10151 10153 10154 10155 10158 10162
2331.5166 10166 10166 10162 10154 10146 10142 10144 10152 10166 10184 10201
2336.8198 10215 10222 10220 10209 10191 10172 10155 10145 10142 10146 10153
2342.1230 10161 10170 10177 10180 10179 10173 10166 10160 10158 10163 10171
2347.4263 10180 10188 10193 10194 10190 10181 10170 10160 10156 10159 10167
2352.7297 10176 10180 10177 10171 10164 10164 10168 10174 10177 10172 10162
2358.0330 10152 10149 10160 10182 10211 10235 10248 10247 10234 10219 10211
2363.3362 10215 10230 10249 10263 10267 10260 10247 10233 10221 10214 10212
2368.6394 10214 10220 10226 10228 10223 10211 10192 10175 10164 10164 10174
2373.9429 10188 10201 10209 10211 10206 10200 10194 10191 10194 10203 10214
2379.2461 10226 10235 10239 10236 10230 10222 10217 10215 10216 10219 10220
2384.5493 10220 10219 10216 10213 10209 10206 10203 10202 10203 10206 10212
2389.8525 10218 10224 10227 10230 10230 10230 10230 10229 10227 10225 10222
2395.1560 10221 10220 10220 10220 10221 10221 10222 10222 10221 10220 10219
2400.4592 10217 10216 10215 10215 10214 10213 10211 10209 10207 10207 10207
2405.7625 10209 10211 10213 10214 10214 10211 10206 10200 10193 10188 10186
2411.0657 10186 10189 10193 10196 10198 10197 10196 10195 10195 10197 10200
2416.3691 10204 10207 10208 10208 10206 10205 10204 10203 10203 10202 10200
2421.6724 10199 10199 10201 10204 10209 10213 10216 10215 10211 10204 10196
2426.9756 10188 10185 10185 10191 10199 10207 10212 10212 10208 10200 10192
2432.2788 10184 10180 10179 10182 10188 10195 10201 10205 10207 10206 10205
2437.5823 10203 10202 10202 10204 10207 10212 10217 10221 10223 10224 10222
2442.8855 10218 10215 10211 10209 10207 10206 10207 10209 10211 10211 10210
2448.1887 10205 10199 10193 10189 10190 10195 10203 10212 10218 10221 10220
2453.4919 10217 10212 10209 10207 10206 10205 10203 10199 10193 10188 10185
2458.7954 10183 10183 10185 10188 10191 10194 10196 10199 10202 10204 10205
2464.0986 10205 10203 10200 10197 10196 10197 10201 10205 10208 10209 10208
2469.4019 10207 10207 10209 10213 10218 10220 10217 10208 10196 10186 10179
2474.7051 10176 10177 10180 10181 10183 10185 10189 10195 10201 10205 10207
2480.0085 10208 10208 10208 10210 10210 10209 10206 10202 10198 10196 10195
2485.3118 10196 10197 10197 10197 10198 10200 10205 10210 10214 10214 10211
2490.6150 10205 10198 10195 10195 10197 10200 10200 10197 10193 10189 10187
2495.9182 10187 10190 10192 10194 10193 10190 10186 10183 10182 10182 10185
2501.2217 10190 10197 10205 10212 10219 10222 10222 10220 10215 10210 10206
2506.5249 10205 10204 10204 10203 10201 10199 10197 10196 10196 10196 10194
2511.8281 10193 10193 10196 10201 10207 10211 10212 10209 10206 10202 10201
2517.1313 10200 10199 10196 10191 10185 10182 10181 10184 10188 10192 10195
2522.4348 10196 10196 10197 10199 10204 10208 10211 10209 10203 10195 10187
2527.7380 10182 10180 10182 10186 10190 10194 10196 10197 10198 10198 10199
2533.0413 10200 10200 10200 10201 10201 10203 10206 10209 10211 10210 10206
2538.3445 10200 10195 10191 10192 10196 10200 10203 10204 10202 10199 10196
2543.6479 10194 10193 10192 10190 10189 10189 10189 10190 10191 10191 10189
2548.9512 10187 10185 10185 10188 10191 10194 10195 10193 10190 10188 10188
2554.2544 10191 10196 10202 10207 10210 10209 10207 10202 10198 10196 10195
2559.5576 10196 10199 10202 10205 10208 10211 10214 10216 10216 10213 10207
2564.8611 10201 10196 10194 10194 10196 10198 10198 10197 10195 10192 10191
2570.1643 10190 10188 10186 10183 10180 10177 10175 10173 10173 10173 10174
2575.4675 10175 10177 10178 10179 10180 10181 10182 10183 10185 10188 10191
2580.7710 10194 10194 10192 10187 10179 10170 10163 10160 10160 10164 10171
2586.0742 10178 10182 10183 10181 10178 10176 10176 10177 10177 10175 10172
2591.3774 10170 10169 10171 10174 10176 10176 10175 10172 10170 10169 10170
2596.6807 10174 10178 10184 10189 10192 10193 10192 10190 10188 10186 10185
2601.9841 10184 10183 10181 10179 10178 10177 10178 10180 10183 10186 10188
2607.2874 10189 10189 10189 10188 10187 10187 10186 10185 10184 10182 10181
2612.5906 10181 10181 10183 10184 10183 10181 10177 10174 10172 10172 10173
2617.8938 10174 10175 10175 10174 10174 10175 10177 10179 10180 10179 10176
2623.1973 10173 10169 10167 10165 10164 10163 10162 10161 10162 10163 10164
2628.5005 10165 10165 10163 10161 10159 10158 10158 10158 10158 10157 10157
2633.8037 10157 10158 10160 10160 10161 10161 10160 10160 10160 10158 10155
2639.1069 10150 10146 10141 10139 10138 10139 10142 10145 10147 10149 10149
2644.4104 10149 10149 10149 10149 10150 10150 10150 10149 10147 10144 10141
2649.7136 10139 10138 10139 10141 10143 10143 10141 10138 10134 10132 10133
2655.0168 10135 10139 10142 10144 10145 10145 10143 10142 10141 10140 10140
2660.3201 10139 10140 10140 10140 10140 10141 10142 10143 10144 10144 10143
2665.6235 10141 10140 10138 10138 10137 10136 10134 10132 10130 10129 10129
2670.9268 10130 10131 10133 10135 10137 10138 10138 10138 10136 10135 10133
2676.2300 10132 10132 10133 10134 10133 10132 10130 10128 10127 10126 10127
2681.5332 10129 10131 10133 10134 10133 10133 10131 10130 10128 10126 10124
2686.8367 10123 10122 10122 10123 10123 10124 10124 10123 10122 10121 10120
2692.1399 10119 10119 10119 10118 10117 10115 10113 10111 10110 10110 10110
2697.4431 10110 10111 10113 10115 10118 10119 10120 10119 10116 10113 10110
2702.7463 10108 10107 10107 10109 10110 10112 10111 10110 10108 10106 10105
2708.0498 10107 10109 10111 10111 10110 10107 10104 10100 10098 10097 10097
2713.3530 10099 10101 10104 10105 10106 10107 10109 10110 10110 10108 10105
2718.6563 10100 10095 10091 10088 10087 10087 10087 10087 10088 10089 10089
2723.9595 10088 10087 10085 10084 10083 10083 10083 10083 10082 10082 10081
2729.2629 10080 10079 10078 10077 10077 10076 10077 10077 10079 10080 10080
2734.5662 10079 10078 10076 10074 10072 10071 10072 10074 10076 10078 10078
2739.8694 10077 10075 10072 10069 10066 10064 10063 10063 10063 10065 10067
2745.1726 10069 10070 10071 10070 10069 10068 10066 10065 10064 10062 10061
2750.4761 10059 10057 10055 10054 10054 10055 10057 10059 10060 10060 10060
2755.7793 10058 10056 10054 10051 10048 10046 10044 10042 10040 10040 10040
2761.0825 10041 10044 10046 10048 10048 10047 10045 10043 10043 10043 10044
2766.3857 10044 10043 10041 10039 10036 10033 10030 10028 10029 10031 10034
2771.6892 10038 10040 10039 10035 10029 10022 10016 10013 10012 10013 10014
2776.9924 10016 10018 10018 10018 10018 10018 10018 10018 10018 10018 10018
2782.2957 10017 10016 10014 10012 10010 10008 10006 10003 10001 9999 9996 9993
2788.0811 9990 9988 9987 9987 9987 9987 9987 9986 9984 9983 9982 9981 9982
2794.3486 9983 9984 9986 9987 9986 9985 9982 9979 9977 9976 9975 9975 9974
2800.6162 9973 9972 9971 9971 9972 9971 9969 9966 9964 9962 9963 9964 9965
2806.8835 9965 9964 9961 9957 9954 9953 9953 9954 9954 9952 9949 9945 9940
2813.1511 9937 9935 9935 9936 9936 9935 9933 9932 9931 9930 9929 9928 9927
2819.4187 9926 9924 9921 9919 9917 9916 9916 9916 9916 9916 9915 9914 9912
2825.6863 9911 9909 9905 9901 9897 9893 9890 9889 9889 9889 9889 9888 9886
2831.9536 9883 9880 9877 9875 9873 9871 9870 9869 9869 9868 9866 9863 9859
2838.2212 9855 9853 9854 9857 9861 9864 9866 9864 9861 9856 9851 9849 9848
2844.4888 9847 9847 9845 9841 9838 9835 9833 9834 9835 9835 9835 9834 9832
2850.7563 9832 9832 9832 9832 9831 9829 9827 9825 9825 9826 9827 9828 9828
2857.0237 9828 9827 9826 9825 9825 9825 9826 9826 9825 9825 9824 9824 9825
2863.2913 9826 9826 9826 9824 9822 9820 9818 9817 9817 9818 9818 9818 9818
2869.5588 9817 9816 9814 9812 9809 9807 9805 9803 9803 9803 9804 9805 9806
2875.8264 9807 9808 9810 9812 9815 9818 9819 9819 9816 9813 9809 9806 9804
2882.0938 9802 9801 9801 9802 9803 9804 9802 9799 9794 9790 9789 9791 9796
2888.3613 9800 9803 9802 9798 9794 9791 9790 9790 9792 9793 9792 9789 9786
2894.6289 9783 9781 9780 9781 9781 9781 9779 9777 9775 9772 9769 9767 9764
2900.8965 9761 9758 9755 9753 9752 9752 9752 9753 9754 9754 9753 9753 9753
2907.1638 9753 9752 9751 9748 9743 9735 9726 9716 9707 9701 9698 9696 9695
2913.4314 9692 9687 9680 9673 9667 9662 9658 9653 9648 9643 9637 9632 9628
2919.6990 9625 9623 9621 9620 9619 9617 9615 9613 9611 9611 9613 9617 9624
2925.9666 9633 9643 9653 9664 9675 9686 9695 9703 9709 9713 9715 9716 9716
2932.2339 9717 9717 9715 9712 9708 9704 9701 9700 9703 9708 9713 9716 9717
2938.5015 9716 9713 9712 9712 9713 9714 9714 9712 9707 9701 9696 9692 9690
2944.7690 9690 9690 9691 9692 9693 9693 9691 9689 9687 9685 9685 9686 9687
2951.0366 9688 9688 9688 9687 9685 9681 9675 9668 9660 9653 9648 9646 9644
2957.3040 9643 9640 9637 9632 9627 9621 9613 9602 9590 9576 9563 9552 9543
2963.5715 9538 9536 9537 9542 9549 9558 9567 9577 9587 9595 9603 9609 9614
2969.8391 9617 9620 9623 9628 9636 9645 9655 9662 9667 9668 9667 9666 9665
2976.1067 9666 9668 9669 9670 9671 9671 9671 9671 9670 9668 9666 9663 9662
2982.3740 9662 9662 9662 9662 9662 9664 9668 9673 9679 9684 9687 9688 9688
2988.6416 9687 9685 9683 9679 9675 9673 9673 9677 9682 9688 9693 9696 9695
2994.9092 9692 9688 9683 9679 9676 9676 9676 9678 9680 9682 9684 9685 9685
3001.1768 9685 9685 9684 9685 9686 9689 9690 9691 9689 9685 9679 9675 9672
3007.4441 9672 9674 9677 9680 9681 9681 9680 9679 9679 9679 9680 9681 9682
3013.7117 9683 9684 9685 9686 9685 9683 9680 9677 9674 9672 9672 9672 9672
3019.9792 9672 9670 9668 9666 9665 9665 9665 9666 9667 9667 9667 9668 9670
3026.2468 9673 9676 9678 9680 9680 9681 9680 9679 9677 9674 9671 9667 9664
3032.5142 9661 9659 9657 9656 9657 9657 9658 9657 9655 9653 9652 9651 9651
3038.7817 9651 9650 9648 9645 9641 9639 9638 9640 9645 9650 9654 9656 9656
3045.0493 9655 9653 9653 9655 9656 9656 9653 9646 9638 9632 9629 9630 9633
3051.3169 9638 9642 9644 9645 9643 9640 9638 9634 9631 9628 9624 9622 9620
3057.5842 9620 9622 9624 9625 9625 9622 9618 9615 9613 9612 9613 9614 9615
3063.8518 9616 9617 9618 9619 9619 9617 9614 9611 9607 9605 9606 9607 9609
3070.1194 9610 9608 9603 9596 9590 9585 9583 9583 9584 9586 9587 9588 9588
3076.3870 9589 9589 9588 9586 9583 9582 9582 9585 9589 9593 9593 9590 9584
3082.6543 9576 9568 9562 9559 9559 9562 9567 9573 9578 9580 9580 9578 9575
3088.9219 9572 9570 9570 9570 9571 9570 9570 9570 9570 9570 9569 9568 9564
3095.1895 9560 9556 9553 9552 9552 9552 9549 9544 9538 9533 9529 9529 9532
3101.4570 9537 9541 9544 9545 9545 9545 9546 9547 9549 9548 9545 9538 9529
3107.7244 9521 9514 9510 9508 9508 9510 9512 9516 9521 9524 9525 9522 9517
3113.9919 9510 9503 9499 9497 9496 9495 9492 9489 9486 9485 9486 9488 9490
3120.2595 9490 9488 9486 9484 9483 9485 9488 9491 9492 9491 9489 9486 9485
3126.5271 9484 9483 9479 9474 9467 9460 9454 9450 9448 9445 9443 9440 9438
3132.7944 9437 9439 9442 9447 9452 9456 9458 9457 9455 9450 9443 9434 9424
3139.0620 9414 9407 9406 9409 9416 9423 9427 9425 9417 9407 9397 9390 9389
3145.3296 9393 9399 9403 9405 9403 9398 9394 9392 9390 9386 9378 9367 9354
3151.5972 9342 9332 9327 9324 9323 9322 9320 9320 9320 9323 9326 9329 9330
3157.8645 9330 9330 9328 9326 9322 9318 9311 9304 9298 9293 9291 9289 9288
3164.1321 9284 9278 9270 9262 9254 9249 9245 9242 9239 9236 9233 9232 9233
3170.3997 9235 9239 9240 9240 9236 9230 9224 9217 9211 9205 9198 9191 9184
3176.6672 9178 9175 9174 9173 9172 9169 9165 9160 9155 9152 9148 9145 9141
3182.9346 9137 9131 9126 9123 9122 9123 9125 9125 9123 9118 9112 9106 9101
3189.2021 9098 9094 9089 9082 9076 9072 9071 9072 9072 9070 9067 9063 9060
3195.4697 9059 9060 9061 9059 9054 9047 9040 9036 9036 9039 9043 9046 9048
3201.7373 9047 9045 9040 9035 9031 9028 9026 9023 9020 9016 9011 9008 9006
3208.0046 9005 9005 9005 9004 9002 9001 8999 8997 8995 8993 8991 8991 8991
3214.2722 8992 8994 8995 8995 8995 8994 8993 8991 8987 8984 8981 8979 8981
3220.5398 8983 8986 8988 8988 8985 8980 8974 8968 8963 8960 8958 8956 8954
3226.8074 8952 8948 8946 8945 8946 8949 8952 8955 8957 8960 8962 8963 8963
3233.0747 8960 8956 8951 8945 8939 8932 8925 8919 8915 8914 8917 8921 8926
3239.3423 8931 8934 8936 8937 8938 8938 8937 8936 8934 8930 8926 8922 8919
3245.6099 8919 8921 8923 8923 8922 8918 8914 8911 8911 8912 8914 8916 8918
3251.8774 8919 8918 8915 8911 8905 8901 8900 8902 8909 8916 8923 8927 8926
3258.1448 8922 8917 8915 8916 8921 8928 8935 8938 8937 8935 8933 8933 8935
3264.4124 8939 8943 8944 8944 8944 8945 8949 8956 8963 8970 8973 8974 8974
3270.6799 8974 8976 8979 8983 8986 8991 8996 9005 9015 9027 9036 9041 9041
3276.9475 9038 9036 9036 9041 9048 9056 9064 9070 9074 9079 9083 9087 9090
3283.2148 9092 9093 9095 9100 9108 9117 9126 9133 9138 9143 9147 9153 9160
3289.4824 9169 9179 9189 9198 9205 9208 9208 9206 9206 9207 9212 9218 9225
3295.7500 9232 9239 9247 9255 9264 9272 9278 9281 9282 9284 9287 9291 9296
3302.0176 9298 9298 9297 9296 9297 9302 9307 9312 9315 9317 9319 9322 9329
3308.2849 9338 9349 9359 9366 9371 9373 9372 9370 9367 9365 9364 9367 9371
3314.5525 9377 9383 9387 9390 9391 9392 9393 9395 9397 9400 9401 9402 9403
3320.8201 9405 9409 9413 9417 9420 9421 9421 9422 9422 9421 9418 9414 9410
3327.0876 9407 9406 9408 9410 9411 9411 9410 9408 9407 9406 9405 9404 9401
3333.3550 9399 9397 9396 9398 9400 9403 9405 9406 9405 9403 9400 9396 9390
3339.6226 9383 9375 9367 9360 9355 9353 9353 9355 9358 9362 9365 9367 9366
3345.8901 9363 9356 9348 9338 9330 9323 9319 9318 9320 9324 9328 9331 9332
3352.1577 9329 9322 9313 9303 9296 9292 9291 9291 9293 9294 9295 9298 9302
3358.4250 9306 9310 9313 9314 9314 9314 9314 9314 9314 9314 9312 9309 9306
3364.6926 9302 9300 9302 9309 9318 9329 9337 9341 9341 9338 9335 9333 9334
3370.9602 9336 9339 9343 9345 9346 9345 9343 9342 9343 9345 9347 9347 9345
3377.2278 9341 9338 9337 9340 9346 9352 9358 9363 9366 9369 9371 9373 9373
3383.4951 9372 9370 9367 9364 9362 9361 9361 9362 9364 9367 9370 9372 9372
3389.7627 9371 9369 9367 9366 9366 9365 9364 9361 9356 9352 9347 9344 9342
3396.0303 9341 9341 9343 9343 9342 9339 9334 9328 9324 9321 9317 9312 9304
3402.2979 9293 9282 9274 9271 9272 9278 9284 9288 9288 9285 9279 9272 9266
3408.5652 9261 9259 9257 9255 9252 9248 9244 9239 9234 9230 9226 9221 9216
3414.8328 9210 9203 9196 9189 9182 9176 9170 9163 9155 9145 9135 9126 9119
3421.1003 9112 9107 9101 9093 9085 9076 9066 9056 9045 9032 9019 9006 8994
3427.3679 8984 8975 8968 8959 8949 8936 8920 8904 8887 8872 8859 8847 8837
3433.6353 8826 8816 8806 8797 8790 8785 8779 8772 8764 8754 8741 8725 8709
3439.9028 8694 8681 8673 8669 8670 8672 8674 8675 8675 8672 8669 8665 8662
3446.1704 8662 8663 8666 8669 8672 8675 8681 8689 8700 8712 8725 8737 8749
3452.4380 8762 8777 8794 8811 8826 8839 8850 8860 8871 8885 8901 8918 8935
3458.7053 8951 8964 8975 8986 8998 9012 9028 9045 9061 9077 9091 9103 9114
3464.9729 9124 9134 9145 9158 9171 9186 9201 9217 9232 9245 9257 9268 9279
3471.2405 9292 9304 9316 9326 9333 9337 9341 9345 9351 9357 9365 9373 9383
3477.5081 9394 9407 9420 9433 9444 9454 9462 9469 9477 9484 9492 9498 9503
3483.7754 9507 9511 9516 9521 9527 9534 9544 9556 9570 9584 9596 9603 9606
3490.0430 9607 9608 9612 9619 9628 9637 9643 9646 9645 9640 9635 9629 9626
3496.3105 9627 9631 9637 9644 9649 9654 9656 9657 9656 9653 9650 9646 9643
3502.5781 9644 9648 9655 9664 9673 9680 9684 9685 9684 9682 9681 9680 9682
3508.8455 9687 9694 9701 9709 9715 9721 9725 9729 9731 9732 9732 9732 9730
3515.1130 9729 9728 9730 9733 9738 9743 9748 9751 9755 9760 9767 9775 9782
3521.3806 9787 9789 9789 9789 9790 9792 9794 9797 9800 9803 9806 9810 9813
3527.6482 9813 9809 9804 9798 9794 9796 9803 9815 9829 9843 9853 9857 9857
3533.9155 9854 9850 9848 9850 9855 9863 9871 9876 9879 9879 9878 9877 9877
3540.1831 9877 9877 9876 9874 9871 9868 9866 9867 9872 9880 9890 9898 9903
3546.4507 9902 9898 9893 9889 9888 9890 9893 9896 9899 9900 9901 9903 9906
3552.7183 9910 9915 9918 9919 9917 9914 9911 9910 9909 9911 9913 9915 9917
3558.9856 9920 9923 9927 9930 9932 9934 9935 9937 9940 9943 9945 9945 9942
3565.2532 9937 9932 9929 9930 9934 9941 9947 9952 9956 9960 9962 9963 9961
3571.5208 9959 9955 9953 9953 9958 9966 9976 9985 9990 9991 9990 9989 9989
3577.7883 9990 9992 9993 9993 9994 9995 9998 10001 10003 10004 10003 9999 9995
3584.0559 9991 9987 9984 9982 9982 9982 9985 9990 9998 10006 10014 10020 10024
3590.3232 10026 10026 10026 10027 10028 10030 10031 10031 10029 10025 10020
3595.6267 10016 10014 10015 10019 10024 10028 10030 10029 10026 10023 10022
3600.9299 10022 10023 10025 10028 10033 10040 10047 10054 10059 10061 10059
3606.2332 10055 10051 10047 10043 10039 10035 10032 10031 10033 10036 10040
3611.5364 10044 10045 10044 10042 10041 10043 10046 10051 10056 10059 10059
3616.8398 10058 10055 10051 10046 10039 10034 10032 10035 10041 10049 10056
3622.1431 10061 10062 10061 10058 10056 10057 10061 10067 10072 10076 10075
3627.4463 10071 10064 10057 10056 10061 10068 10075 10081 10085 10088 10088
3632.7495 10085 10079 10072 10067 10066 10068 10074 10081 10089 10096 10102
3638.0530 10105 10104 10099 10092 10086 10082 10080 10082 10087 10093 10098
3643.3562 10101 10101 10098 10092 10086 10080 10073 10064 10053 10043 10039
3648.6594 10044 10057 10074 10087 10091 10089 10086 10086 10090 10096 10103
3653.9626 10109 10114 10117 10117 10115 10111 10107 10104 10102 10101 10101
3659.2661 10103 10103 10103 10101 10098 10097 10097 10099 10105 10111 10118
3664.5693 10123 10126 10127 10129 10130 10131 10133 10133 10131 10127 10121
3669.8726 10115 10109 10104 10101 10098 10094 10088 10080 10071 10064 10065
3675.1758 10082 10106 10124 10132 10136 10138 10139 10139 10136 10132 10127
3680.4792 10124 10124 10126 10128 10128 10124 10120 10116 10116 10120 10128
3685.7825 10135 10138 10135 10123 10106 10092 10088 10095 10108 10118 10122
3691.0857 10119 10111 10103 10100 10102 10108 10116 10122 10124 10123 10119
3696.3889 10114 10110 10111 10115 10122 10130 10136 10140 10140 10138 10134
3701.6924 10130 10125 10120 10115 10109 10105 10103 10104 10109 10114 10117
3706.9956 10116 10113 10108 10104 10103 10104 10106 10106 10105 10105 10108
3712.2988 10114 10120 10125 10128 10129 10129 10128 10127 10125 10123 10122
3717.6021 10120 10119 10119 10120 10122 10126 10131 10134 10135 10132 10128
3722.9055 10125 10125 10127 10132 10137 10141 10144 10143 10139 10133 10127
3728.2087 10122 10120 10122 10125 10132 10140 10149 10158 10162 10159 10151
3733.5120 10138 10123 10110 10103 10105 10113 10120 10124 10125 10125 10126
3738.8152 10127 10130 10133 10136 10139 10140 10138 10134 10126 10114 10100
3744.1187 10094 10101 10116 10127 10134 10136 10136 10132 10125 10116 10106
3749.4219 10101 10101 10106 10114 10123 10132 10138 10141 10141 10140 10140
3754.7251 10142 10145 10150 10156 10161 10165 10164 10160 10150 10135 10120
3760.0283 10109 10106 10110 10118 10128 10137 10143 10145 10143 10139 10133
3765.3318 10130 10130 10136 10145 10154 10162 10168 10169 10164 10157 10151
3770.6350 10147 10146 10146 10145 10145 10146 10148 10153 10158 10161 10161
3775.9382 10158 10152 10146 10141 10137 10136 10136 10138 10139 10141 10143
3781.2415 10146 10148 10149 10149 10147 10144 10140 10136 10132 10129 10126
3786.5449 10126 10128 10134 10141 10149 10155 10157 10157 10153 10150 10146
3791.8481 10145 10144 10143 10143 10141 10139 10135 10132 10130 10131 10137
3797.1514 10146 10155 10161 10162 10157 10144 10127 10110 10106 10119 10141
3802.4546 10159 10169 10172 10171 10167 10161 10152 10140 10127 10119 10119
3807.7581 10126 10137 10149 10158 10164 10166 10164 10160 10156 10155 10155
3813.0613 10155 10154 10150 10144 10140 10141 10149 10157 10162 10163 10161
3818.3645 10158 10154 10151 10147 10144 10141 10138 10136 10136 10137 10139
3823.6677 10141 10143 10142 10139 10134 10129 10128 10133 10140 10148 10153
3828.9712 10154 10150 10143 10136 10131 10131 10135 10141 10146 10150 10153
3834.2744 10157 10160 10161 10161 10157 10153 10149 10150 10152 10154 10153
3839.5776 10148 10143 10139 10138 10139 10142 10146 10152 10158 10163 10165
3844.8809 10164 10161 10159 10159 10162 10166 10169 10170 10169 10167 10164
3850.1843 10162 10159 10153 10141 10123 10102 10091 10099 10118 10134 10142
3855.4875 10143 10142 10143 10148 10157 10167 10174 10176 10171 10161 10149
3860.7908 10138 10133 10133 10138 10143 10148 10149 10149 10148 10147 10149
3866.0940 10151 10152 10153 10153 10151 10147 10142 10140 10141 10146 10152
3871.3975 10158 10161 10163 10162 10159 10158 10159 10163 10168 10169 10168
3876.7007 10163 10155 10148 10143 10142 10144 10148 10151 10151 10149 10146
3882.0039 10144 10145 10147 10150 10153 10156 10159 10162 10164 10166 10167
3887.3071 10169 10170 10170 10168 10164 10155 10144 10134 10129 10131 10138
3892.6106 10145 10151 10156 10159 10162 10166 10169 10170 10168 10163 10157
3897.9138 10151 10147 10146 10148 10153 10159 10165 10171 10173 10171 10164
3903.2170 10155 10148 10145 10147 10151 10155 10157 10158 10159 10159 10158
3908.5203 10157 10156 10156 10157 10159 10162 10164 10163 10162 10160 10160
3913.8237 10162 10165 10167 10167 10166 10164 10164 10165 10167 10168 10168
3919.1270 10168 10168 10168 10168 10167 10166 10164 10163 10165 10168 10172
3924.4302 10172 10167 10159 10151 10147 10146 10150 10154 10158 10160 10159
3929.7334 10157 10155 10154 10156 10160 10164 10168 10170 10169 10168 10167
3935.0369 10166 10166 10165 10164 10162 10159 10156 10152 10149 10147 10148
3940.3401 10152 10158 10164 10170 10174 10175 10175 10174 10174 10175 10176
3945.6433 10175 10172 10167 10162 10159 10158 10158 10160 10162 10163 10165
3950.9465 10168 10172 10177 10181 10183 10181 10177 10171 10166 10161 10157
3956.2500 10154 10152 10152 10154 10158 10164 10167 10167 10161 10152 10142
3961.5532 10137 10138 10144 10153 10162 10169 10174 10177 10179 10180 10179
3966.8564 10176 10172 10167 10162 10161 10164 10168 10174 10178 10178 10176
3972.1597 10171 10167 10164 10162 10163 10164 10166 10169 10171 10174 10176
3977.4631 10177 10177 10176 10175 10173 10171 10171 10171 10172 10175 10177
3982.7664 10179 10180 10180 10179 10177 10176 10175 10173 10170 10165 10161
3988.0696 10159 10161 10166 10172 10177 10178 10173 10166 10158 10154 10154
3993.3728 10159 10166 10173 10178 10180 10179 10174 10168 10163 10159 10157
3998.6763 10157 10159 10160 10160
##END= 
