##TITLE= INC27
##JCAMP-DX= 4.24
##DATA TYPE= INFRARED SPECTRUM
##ORIGIN= JASCO
##OWNER= 
##DATE= 22/04/12
##TIME= 11:28:47
##SPECTROMETER/DATA SYSTEM= 
##RESOLUTION= 
##DELTAX=   0.48211674
##XUNITS= 1/CM
##YUNITS= TRANSMITTANCE
##XFACTOR= 1.00000
##YFACTOR= 0.0001
##FIRSTX=   599.7532
##LASTX=  4000.1226
##NPOINTS=     7054
##FIRSTY=      0.91055
##MAXY=      1.03875
##MINY=      0.46852
##XYDATA= (X++(Y..Y))
599.7532 9105 8975 8888 8870 8928 9046 9199 9357 9501 9623 9726 9816 9894 9962
606.5029 10017 10060 10089 10104 10106 10094 10075 10055 10041 10037 10042
611.8062 10049 10052 10046 10029 9999 9956 9902 9839 9775 9711 9644 9566 9472
618.0737 9364 9258 9173 9128 9137 9199 9307 9445 9595 9741 9868 9969 10041
624.3412 10086 10107 10113 10110 10099 10085 10065 10039 10004 9959 9909 9861
630.1266 9827 9817 9829 9856 9881 9890 9876 9843 9802 9766 9741 9729 9727 9732
636.8762 9744 9760 9776 9788 9793 9793 9791 9791 9792 9791 9779 9751 9710 9663
643.6259 9620 9589 9572 9569 9582 9611 9657 9714 9770 9808 9814 9786 9736 9683
650.3755 9644 9628 9634 9657 9685 9710 9726 9731 9729 9725 9724 9729 9741 9754
657.1251 9763 9764 9757 9745 9735 9733 9741 9758 9777 9790 9793 9784 9771 9758
663.8748 9749 9740 9727 9707 9683 9659 9643 9643 9669 9702 9702 9674 9646 9623
670.6244 9603 9578 9542 9490 9424 9354 9295 9261 9261 9287 9318 9330 9307 9251
677.3740 9188 9151 9169 9247 9365 9482 9561 9582 9556 9517 9503 9534 9601 9673
684.1237 9714 9705 9655 9595 9559 9564 9600 9636 9639 9586 9481 9353 9243 9186
690.8733 9191 9247 9318 9368 9372 9327 9251 9174 9123 9111 9132 9171 9209 9235
697.6229 9247 9254 9267 9294 9337 9386 9430 9456 9457 9435 9395 9348 9307 9285
704.3726 9288 9317 9358 9393 9405 9385 9339 9285 9247 9238 9259 9294 9322 9323
711.1222 9292 9239 9180 9134 9114 9119 9142 9171 9195 9208 9206 9192 9170 9145
717.8718 9121 9102 9089 9080 9068 9045 9010 8962 8911 8864 8827 8799 8779 8761
724.6215 8741 8717 8686 8647 8599 8540 8469 8383 8282 8163 8021 7853 7655 7432
731.3711 7196 6974 6801 6713 6740 6891 7152 7488 7856 8211 8522 8769 8944 9050
738.1207 9095 9093 9065 9028 8995 8972 8951 8924 8882 8821 8746 8668 8596 8535
744.8704 8484 8434 8374 8296 8197 8082 7956 7824 7687 7539 7374 7186 6977 6752
751.6200 6520 6289 6067 5854 5652 5458 5272 5099 4946 4820 4731 4685 4688 4740
758.3696 4838 4970 5122 5277 5427 5573 5727 5905 6122 6384 6685 7011 7342 7661
765.1193 7955 8213 8428 8593 8704 8760 8765 8733 8682 8632 8600 8598 8630 8693
771.8689 8784 8896 9026 9170 9324 9480 9631 9766 9880 9967 10027 10064 10083
778.1364 10092 10097 10099 10100 10098 10091 10080 10065 10051 10043 10043
783.4397 10054 10076 10106 10143 10183 10224 10261 10292 10315 10328 10332
788.7430 10328 10320 10314 10313 10320 10333 10348 10363 10373 10379 10383
794.0463 10384 10384 10382 10379 10375 10372 10372 10374 10378 10382 10386
799.3495 10387 10387 10386 10384 10380 10375 10370 10365 10358 10351 10342
804.6528 10332 10320 10308 10293 10276 10255 10232 10210 10190 10173 10158
809.9561 10142 10125 10108 10094 10085 10081 10078 10075 10069 10059 10050
815.2594 10045 10047 10054 10063 10069 10067 10056 10037 10013 9988 9964 9943
821.0448 9923 9904 9887 9874 9867 9866 9869 9874 9876 9872 9864 9851 9837 9822
827.7944 9808 9792 9773 9751 9725 9697 9672 9654 9642 9638 9639 9642 9646 9651
834.5441 9657 9664 9670 9675 9675 9671 9663 9652 9641 9628 9614 9597 9577 9558
841.2937 9542 9533 9532 9537 9542 9543 9535 9518 9493 9464 9435 9406 9377 9347
848.0433 9310 9263 9203 9131 9050 8967 8888 8822 8776 8754 8758 8782 8813 8841
854.7930 8857 8859 8852 8843 8838 8838 8841 8844 8846 8848 8856 8875 8911 8964
861.5426 9036 9126 9228 9339 9453 9566 9673 9772 9860 9936 10001 10058 10109
867.8101 10157 10200 10236 10262 10277 10281 10275 10258 10229 10185 10126
873.1134 10055 9978 9902 9830 9765 9707 9654 9607 9568 9538 9516 9504 9499
879.3809 9502 9509 9520 9534 9547 9559 9567 9569 9567 9562 9556 9549 9543 9536
886.1306 9527 9517 9505 9494 9487 9482 9478 9474 9466 9457 9446 9436 9428 9423
892.8802 9421 9422 9424 9428 9430 9427 9417 9402 9382 9362 9344 9330 9319 9309
899.6298 9298 9281 9259 9228 9190 9146 9100 9059 9030 9018 9026 9054 9096 9148
906.3795 9200 9248 9288 9318 9339 9355 9367 9378 9389 9400 9410 9419 9424 9426
913.1291 9426 9423 9417 9409 9400 9390 9383 9377 9373 9369 9363 9354 9343 9330
919.8787 9315 9297 9277 9256 9234 9215 9197 9177 9152 9117 9069 9009 8939 8859
926.6284 8771 8675 8571 8461 8350 8250 8173 8131 8131 8175 8257 8360 8471 8574
933.3780 8664 8740 8808 8876 8947 9020 9092 9158 9214 9260 9300 9335 9371 9406
940.1276 9441 9474 9503 9528 9548 9562 9570 9572 9571 9569 9566 9563 9559 9551
946.8773 9539 9523 9505 9485 9466 9447 9429 9411 9395 9383 9377 9378 9387 9403
953.6269 9426 9454 9487 9523 9562 9601 9640 9675 9708 9737 9763 9786 9805 9819
960.3765 9828 9832 9830 9823 9812 9796 9777 9755 9733 9712 9694 9680 9671 9666
967.1262 9664 9665 9667 9668 9666 9661 9654 9645 9634 9621 9603 9579 9548 9512
973.8758 9473 9436 9404 9380 9365 9361 9370 9390 9422 9460 9502 9541 9576 9604
980.6254 9627 9645 9658 9667 9670 9670 9667 9666 9668 9673 9681 9691 9699 9707
987.3751 9714 9719 9723 9726 9725 9720 9711 9697 9680 9659 9634 9606 9575 9544
994.1247 9513 9484 9458 9433 9410 9386 9362 9337 9310 9280 9245 9207 9166 9122
1000.8743 9078 9033 8988 8943 8899 8862 8834 8822 8829 8857 8905 8969 9044
1007.1418 9122 9199 9271 9337 9395 9445 9488 9523 9552 9576 9599 9623 9648
1013.4094 9673 9697 9719 9738 9756 9775 9793 9809 9821 9825 9820 9808 9789
1019.6769 9765 9738 9709 9678 9645 9611 9577 9541 9504 9466 9426 9385 9343
1025.9445 9299 9254 9207 9158 9106 9048 8983 8909 8824 8727 8617 8495 8362
1032.2119 8222 8083 7957 7861 7808 7807 7860 7955 8075 8197 8301 8376 8414
1038.4795 8416 8388 8335 8265 8184 8102 8026 7966 7929 7923 7951 8015 8112
1044.7469 8234 8370 8509 8641 8760 8861 8945 9010 9059 9093 9117 9133 9144
1051.0145 9153 9159 9163 9169 9177 9190 9209 9232 9254 9274 9288 9297 9303
1057.2820 9304 9301 9292 9276 9254 9226 9197 9173 9157 9156 9171 9201 9241
1063.5496 9285 9325 9357 9376 9384 9383 9376 9369 9364 9366 9377 9395 9419
1069.8170 9447 9475 9500 9521 9536 9544 9547 9545 9542 9540 9540 9543 9547
1076.0846 9551 9552 9550 9545 9539 9533 9531 9534 9542 9552 9563 9575 9588
1082.3521 9601 9616 9631 9645 9658 9669 9681 9694 9709 9727 9743 9756 9761
1088.6196 9756 9740 9715 9682 9644 9602 9557 9510 9461 9412 9365 9320 9276
1094.8871 9233 9191 9150 9113 9082 9057 9037 9020 9001 8978 8949 8916 8880
1101.1547 8842 8805 8770 8737 8705 8673 8644 8617 8594 8577 8566 8562 8563
1107.4221 8573 8590 8616 8651 8692 8740 8789 8840 8887 8931 8968 8998 9018
1113.6897 9029 9034 9034 9032 9030 9029 9028 9024 9015 9002 8984 8963 8938
1119.9572 8908 8871 8827 8775 8715 8649 8579 8504 8426 8344 8261 8177 8095
1126.2247 8019 7955 7908 7887 7895 7936 8010 8110 8231 8364 8499 8632 8756
1132.4922 8871 8975 9071 9157 9233 9300 9355 9399 9434 9460 9479 9493 9500
1138.7598 9501 9497 9489 9479 9468 9458 9446 9431 9410 9383 9351 9322 9305
1145.0272 9305 9326 9366 9418 9471 9519 9555 9579 9591 9593 9588 9578 9564
1151.2948 9549 9533 9518 9504 9489 9474 9457 9438 9417 9393 9366 9336 9302
1157.5623 9261 9215 9162 9106 9051 9003 8968 8951 8954 8975 9007 9045 9081
1163.8298 9110 9128 9134 9127 9109 9083 9052 9019 8987 8957 8931 8913 8903
1170.0973 8904 8913 8929 8946 8960 8969 8973 8972 8969 8965 8963 8963 8970
1176.3649 8985 9009 9044 9089 9139 9193 9247 9299 9346 9388 9425 9457 9487
1182.6323 9513 9535 9554 9568 9578 9586 9591 9596 9598 9598 9595 9590 9583
1188.8999 9576 9571 9569 9571 9574 9576 9576 9573 9569 9565 9563 9564 9565
1195.1674 9566 9565 9562 9559 9556 9555 9555 9555 9556 9556 9557 9559 9560
1201.4349 9560 9559 9556 9553 9551 9550 9551 9554 9559 9564 9567 9567 9564
1207.7024 9560 9554 9549 9547 9546 9546 9545 9543 9537 9527 9513 9494 9473
1213.9700 9449 9423 9393 9358 9315 9260 9194 9114 9023 8921 8810 8694 8574
1220.2374 8454 8337 8226 8121 8023 7931 7842 7755 7667 7577 7488 7402 7326
1226.5050 7268 7237 7240 7282 7364 7482 7632 7803 7988 8177 8361 8534 8690
1232.7725 8828 8945 9044 9126 9194 9250 9296 9334 9365 9389 9406 9416 9419
1239.0400 9418 9413 9405 9395 9379 9359 9332 9300 9263 9224 9181 9135 9088
1245.3075 9042 9002 8972 8954 8950 8958 8974 8995 9016 9033 9043 9042 9027
1251.5751 8997 8950 8888 8810 8719 8619 8515 8413 8323 8254 8216 8217 8260
1257.8425 8342 8456 8590 8729 8859 8969 9053 9109 9142 9157 9159 9152 9137
1264.1101 9115 9086 9051 9012 8970 8927 8882 8837 8793 8753 8720 8696 8685
1270.3776 8686 8703 8733 8777 8833 8898 8968 9041 9111 9175 9229 9273 9304
1276.6451 9324 9331 9328 9314 9292 9261 9224 9181 9132 9077 9020 8965 8914
1282.9126 8874 8846 8831 8826 8830 8840 8855 8878 8910 8954 9007 9069 9133
1289.1802 9196 9254 9304 9346 9379 9404 9423 9438 9450 9460 9468 9474 9479
1295.4476 9483 9486 9488 9489 9490 9492 9494 9496 9497 9497 9497 9496 9495
1301.7152 9495 9495 9494 9491 9487 9481 9476 9471 9466 9462 9458 9454 9450
1307.9827 9445 9440 9434 9428 9422 9417 9411 9403 9394 9382 9368 9354 9340
1314.2502 9326 9312 9298 9283 9268 9252 9235 9218 9200 9179 9153 9124 9092
1320.5177 9059 9026 8994 8963 8931 8897 8862 8826 8788 8748 8706 8664 8622
1326.7853 8581 8542 8504 8465 8424 8377 8322 8259 8188 8112 8035 7961 7898
1333.0527 7850 7824 7822 7846 7898 7975 8075 8194 8324 8458 8593 8729 8864
1339.3203 8994 9111 9206 9278 9329 9369 9401 9428 9452 9472 9488 9498 9505
1345.5878 9506 9503 9496 9486 9472 9456 9437 9416 9392 9365 9337 9308 9281
1351.8553 9258 9242 9233 9232 9239 9253 9271 9294 9321 9349 9380 9410 9439
1358.1228 9465 9486 9503 9516 9526 9535 9543 9549 9553 9554 9551 9545 9537
1364.3904 9530 9522 9515 9507 9498 9488 9479 9468 9456 9443 9427 9409 9389
1370.6578 9369 9348 9326 9302 9274 9238 9189 9127 9055 8982 8912 8847 8789
1376.9254 8739 8704 8691 8706 8751 8820 8905 8996 9084 9163 9228 9278 9313
1383.1929 9337 9351 9358 9362 9363 9361 9356 9346 9330 9311 9293 9278 9267
1389.4604 9259 9253 9251 9253 9259 9268 9279 9289 9295 9295 9285 9267 9244
1395.7279 9224 9210 9201 9197 9197 9200 9205 9210 9213 9215 9216 9217 9218
1401.9955 9219 9221 9222 9222 9218 9210 9198 9184 9172 9163 9158 9156 9158
1408.2629 9163 9172 9184 9195 9202 9201 9190 9166 9131 9088 9042 9000 8970
1414.5305 8957 8965 8993 9036 9085 9129 9162 9178 9173 9145 9102 9062 9032
1420.7980 9012 8996 8982 8965 8945 8918 8885 8849 8814 8782 8752 8721 8691
1427.0656 8660 8629 8598 8565 8527 8483 8433 8382 8334 8289 8241 8188 8127
1433.3330 8064 8003 7950 7901 7851 7791 7716 7640 7585 7553 7531 7509 7482
1439.6006 7447 7408 7364 7317 7266 7210 7148 7085 7029 6989 6972 6978 7004
1445.8680 7042 7083 7119 7141 7139 7113 7068 7013 6951 6878 6791 6687 6571
1452.1356 6455 6351 6267 6205 6162 6137 6134 6161 6237 6379 6580 6790 6964
1458.4031 7098 7205 7303 7403 7516 7649 7803 7972 8144 8308 8462 8609 8758
1464.6707 8903 9026 9112 9166 9202 9231 9255 9275 9291 9300 9307 9314 9321
1470.9381 9331 9341 9344 9337 9322 9308 9300 9297 9294 9289 9275 9251 9220
1477.2057 9187 9154 9122 9090 9059 9029 9000 8974 8951 8930 8910 8889 8866
1483.4731 8840 8810 8779 8750 8725 8711 8711 8731 8767 8812 8861 8913 8968
1489.7407 9028 9085 9131 9166 9197 9230 9270 9313 9359 9405 9453 9504 9560
1496.0082 9619 9671 9710 9740 9766 9792 9820 9844 9864 9879 9891 9901 9911
1502.2758 9919 9927 9936 9947 9961 9978 9999 10020 10031 10017 9988 9961 9941
1508.5432 9925 9914 9906 9902 9901 9900 9900 9898 9896 9895 9896 9899 9906
1514.8108 9914 9923 9929 9927 9916 9903 9895 9895 9902 9914 9930 9948 9964
1521.0782 9965 9948 9929 9919 9919 9924 9933 9943 9953 9960 9965 9969 9972
1527.3458 9975 9976 9976 9973 9971 9970 9972 9978 9987 10000 10013 10025 10029
1533.6133 10024 10015 10007 10005 10006 10011 10020 10031 10046 10064 10082
1538.9166 10093 10087 10066 10047 10034 10024 10014 10007 10002 10000 9997
1544.2198 9987 9968 9943 9918 9899 9887 9879 9872 9864 9853 9834 9805 9768
1550.4874 9731 9701 9680 9666 9654 9640 9620 9591 9560 9534 9518 9508 9502
1556.7549 9497 9488 9473 9440 9382 9333 9315 9309 9304 9297 9289 9278 9265
1563.0225 9247 9221 9186 9136 9076 9011 8949 8894 8847 8807 8772 8748 8744
1569.2899 8773 8830 8895 8952 9002 9047 9091 9131 9164 9189 9206 9220 9235
1575.5575 9255 9280 9305 9324 9338 9352 9367 9381 9395 9408 9417 9424 9428
1581.8250 9430 9429 9426 9419 9409 9396 9381 9364 9344 9321 9295 9267 9236
1588.0925 9203 9168 9131 9095 9063 9036 9017 9010 9016 9036 9071 9121 9184
1594.3601 9254 9326 9393 9453 9504 9545 9576 9599 9613 9621 9624 9622 9618
1600.6276 9611 9601 9591 9581 9572 9565 9559 9555 9552 9551 9552 9554 9557
1606.8951 9559 9560 9560 9560 9560 9561 9563 9565 9569 9573 9579 9586 9594
1613.1626 9601 9608 9615 9623 9630 9639 9647 9655 9661 9667 9674 9680 9685
1619.4302 9690 9694 9698 9702 9706 9711 9716 9720 9721 9719 9718 9717 9717
1625.6976 9717 9714 9706 9692 9671 9646 9624 9607 9594 9584 9576 9569 9561
1631.9652 9553 9547 9544 9543 9544 9549 9556 9561 9560 9556 9550 9545 9540
1638.2327 9535 9532 9530 9528 9526 9524 9521 9518 9515 9513 9513 9514 9517
1644.5002 9521 9526 9532 9539 9543 9542 9535 9526 9516 9508 9503 9501 9501
1650.7677 9503 9508 9515 9524 9531 9525 9510 9500 9496 9493 9491 9489 9487
1657.0353 9484 9481 9479 9477 9475 9475 9475 9477 9479 9481 9483 9482 9479
1663.3027 9475 9471 9469 9466 9463 9460 9456 9453 9452 9453 9456 9458 9458
1669.5703 9455 9449 9443 9439 9436 9435 9436 9438 9442 9447 9453 9456 9452
1675.8378 9444 9434 9428 9425 9424 9427 9430 9434 9436 9434 9431 9429 9428
1682.1053 9431 9436 9444 9451 9450 9440 9432 9429 9429 9430 9430 9430 9428
1688.3728 9426 9424 9422 9421 9420 9418 9417 9417 9418 9421 9425 9430 9435
1694.6404 9441 9447 9452 9452 9447 9440 9434 9428 9422 9415 9408 9406 9414
1700.9078 9424 9430 9434 9436 9438 9439 9439 9440 9440 9438 9435 9429 9423
1707.1754 9416 9410 9406 9402 9400 9398 9396 9394 9393 9393 9395 9397 9401
1713.4429 9403 9403 9400 9392 9384 9378 9375 9377 9382 9387 9387 9382 9375
1719.7104 9369 9365 9363 9363 9364 9365 9366 9366 9364 9363 9363 9363 9364
1725.9779 9366 9369 9373 9378 9384 9390 9396 9402 9405 9406 9406 9406 9408
1732.2455 9411 9418 9426 9431 9425 9410 9396 9386 9378 9372 9369 9367 9368
1738.5129 9370 9374 9375 9373 9367 9361 9356 9353 9351 9351 9352 9354 9357
1744.7805 9361 9365 9369 9373 9377 9380 9382 9382 9381 9379 9377 9375 9374
1751.0480 9372 9371 9370 9369 9368 9367 9368 9369 9370 9370 9370 9370 9371
1757.3156 9373 9375 9377 9377 9375 9375 9376 9380 9387 9393 9394 9390 9383
1763.5830 9377 9373 9371 9371 9371 9372 9373 9373 9373 9371 9369 9367 9366
1769.8506 9367 9369 9373 9379 9384 9387 9385 9381 9376 9371 9365 9360 9356
1776.1180 9352 9349 9346 9343 9341 9339 9338 9338 9338 9337 9333 9327 9319
1782.3856 9311 9304 9299 9296 9295 9297 9301 9304 9305 9303 9299 9295 9292
1788.6531 9293 9299 9308 9319 9332 9343 9353 9360 9364 9365 9366 9365 9364
1794.9207 9363 9361 9360 9358 9357 9358 9359 9363 9369 9378 9387 9394 9398
1801.1881 9398 9395 9392 9389 9387 9385 9383 9379 9374 9370 9367 9368 9373
1807.4557 9379 9386 9392 9396 9399 9402 9404 9404 9402 9397 9391 9384 9379
1813.7231 9377 9377 9381 9386 9392 9396 9398 9397 9392 9387 9383 9383 9386
1819.9907 9393 9400 9407 9412 9413 9412 9411 9411 9412 9414 9416 9417 9415
1826.2582 9412 9409 9407 9406 9404 9400 9394 9387 9381 9378 9379 9381 9386
1832.5258 9391 9397 9402 9404 9402 9397 9390 9382 9375 9371 9367 9363 9359
1838.7932 9355 9351 9349 9348 9349 9350 9352 9355 9359 9366 9374 9381 9382
1845.0608 9379 9374 9370 9367 9366 9365 9364 9362 9358 9352 9345 9339 9335
1851.3282 9337 9343 9351 9357 9360 9358 9353 9348 9345 9345 9347 9349 9350
1857.5958 9351 9349 9347 9343 9340 9337 9336 9336 9337 9337 9335 9331 9327
1863.8633 9322 9318 9314 9311 9308 9305 9302 9298 9297 9299 9307 9319 9328
1870.1309 9331 9328 9321 9312 9306 9303 9304 9307 9311 9313 9315 9318 9324
1876.3983 9333 9342 9349 9350 9347 9341 9335 9334 9337 9345 9353 9359 9362
1882.6659 9361 9358 9355 9352 9349 9346 9344 9342 9343 9346 9350 9353 9354
1888.9333 9353 9352 9354 9359 9365 9370 9373 9372 9369 9366 9363 9362 9362
1895.2009 9363 9364 9365 9365 9364 9359 9351 9341 9331 9324 9324 9331 9342
1901.4684 9355 9363 9364 9356 9344 9330 9318 9312 9312 9315 9319 9322 9323
1907.7360 9324 9325 9328 9333 9338 9342 9347 9352 9356 9359 9359 9355 9348
1914.0034 9340 9332 9327 9322 9318 9314 9309 9305 9304 9304 9304 9303 9303
1920.2710 9306 9314 9327 9343 9358 9367 9369 9365 9358 9350 9344 9342 9345
1926.5385 9354 9368 9381 9391 9393 9389 9384 9383 9389 9401 9413 9420 9419
1932.8060 9410 9397 9385 9377 9374 9372 9368 9359 9344 9328 9315 9310 9315
1939.0735 9329 9346 9363 9378 9392 9401 9400 9383 9349 9305 9265 9242 9243
1945.3411 9268 9306 9340 9354 9343 9315 9282 9260 9256 9268 9288 9308 9318
1951.6085 9317 9307 9293 9282 9279 9288 9303 9318 9324 9315 9295 9272 9261
1957.8761 9268 9293 9324 9344 9341 9314 9274 9236 9213 9207 9218 9238 9263
1964.1436 9286 9302 9306 9297 9280 9263 9255 9257 9264 9262 9246 9216 9183
1970.4111 9158 9149 9155 9167 9174 9170 9158 9145 9140 9143 9154 9166 9179
1976.6786 9198 9230 9275 9321 9351 9351 9321 9274 9227 9194 9177 9173 9176
1982.9462 9185 9202 9228 9259 9286 9297 9291 9273 9251 9235 9227 9225 9224
1989.2136 9223 9224 9232 9249 9270 9286 9291 9286 9280 9283 9294 9305 9303
1995.4812 9279 9238 9194 9165 9159 9172 9190 9201 9198 9186 9173 9168 9174
2001.7487 9192 9221 9256 9291 9316 9320 9297 9253 9205 9172 9167 9188 9219
2008.0162 9244 9252 9247 9241 9245 9261 9282 9298 9303 9300 9298 9306 9327
2014.2837 9356 9382 9395 9391 9375 9360 9356 9370 9400 9435 9464 9476 9463
2020.5513 9421 9354 9271 9186 9115 9066 9041 9036 9045 9065 9094 9137 9195
2026.8187 9267 9345 9415 9460 9472 9449 9405 9357 9316 9288 9267 9243 9211
2033.0863 9173 9135 9108 9093 9091 9098 9112 9131 9154 9180 9205 9225 9239
2039.3538 9243 9237 9225 9214 9212 9226 9255 9290 9319 9333 9329 9311 9287
2045.6213 9265 9249 9243 9248 9261 9280 9298 9307 9305 9294 9280 9268 9261
2051.8889 9257 9250 9237 9215 9189 9167 9156 9161 9177 9197 9211 9213 9205
2058.1563 9196 9195 9209 9235 9266 9292 9308 9314 9315 9312 9307 9299 9285
2064.4238 9270 9257 9249 9248 9251 9255 9260 9268 9280 9296 9313 9327 9332
2070.6914 9328 9319 9307 9297 9287 9275 9262 9247 9235 9229 9231 9238 9244
2076.9590 9245 9238 9226 9213 9205 9206 9217 9233 9252 9266 9272 9267 9254
2083.2263 9236 9217 9201 9189 9182 9179 9182 9190 9206 9225 9242 9250 9246
2089.4939 9229 9207 9189 9181 9185 9197 9210 9218 9217 9207 9193 9176 9162
2095.7615 9150 9143 9141 9146 9158 9176 9195 9208 9209 9195 9170 9146 9129
2102.0291 9127 9136 9149 9159 9159 9150 9137 9126 9121 9121 9126 9130 9133
2108.2964 9136 9138 9141 9146 9149 9149 9143 9133 9125 9124 9133 9151 9170
2114.5640 9183 9183 9169 9147 9124 9107 9102 9107 9119 9134 9146 9152 9149
2120.8315 9140 9128 9118 9112 9111 9112 9114 9116 9118 9121 9125 9128 9127
2127.0991 9123 9115 9105 9097 9091 9089 9090 9092 9096 9100 9104 9108 9111
2133.3665 9112 9110 9104 9098 9093 9093 9097 9100 9098 9091 9080 9072 9070
2139.6340 9073 9077 9073 9059 9036 9009 8987 8977 8982 9001 9030 9056 9068
2145.9016 9058 9027 8987 8953 8940 8957 9001 9064 9130 9185 9211 9195 9136
2152.1692 9049 8962 8905 8897 8935 9001 9063 9094 9081 9028 8950 8873 8819
2158.4365 8801 8817 8850 8879 8889 8882 8870 8863 8868 8879 8890 8900 8912
2164.7041 8932 8961 8997 9030 9052 9057 9045 9017 8977 8930 8883 8844 8820
2170.9717 8816 8829 8854 8882 8909 8933 8955 8979 9005 9027 9037 9025 8990
2177.2393 8940 8890 8859 8858 8885 8928 8969 8990 8986 8961 8930 8905 8895
2183.5066 8901 8918 8939 8959 8972 8975 8966 8947 8925 8905 8894 8894 8907
2189.7742 8928 8951 8974 8989 8996 8993 8980 8961 8942 8927 8920 8920 8925
2196.0417 8932 8941 8952 8965 8983 9004 9022 9026 9008 8967 8910 8851 8808
2202.3093 8789 8794 8815 8842 8868 8889 8906 8918 8923 8915 8895 8868 8839
2208.5767 8817 8807 8810 8823 8840 8855 8862 8858 8845 8828 8813 8809 8818
2214.8442 8837 8858 8877 8887 8889 8885 8878 8870 8858 8843 8825 8810 8803
2221.1118 8808 8824 8846 8866 8876 8870 8851 8825 8799 8778 8765 8759 8757
2227.3794 8755 8754 8753 8756 8763 8773 8781 8785 8784 8779 8775 8773 8774
2233.6467 8776 8780 8784 8790 8796 8800 8796 8779 8750 8716 8687 8673 8678
2239.9143 8698 8724 8744 8752 8747 8734 8721 8715 8716 8719 8719 8710 8695
2246.1819 8676 8661 8654 8655 8662 8670 8679 8688 8699 8709 8717 8721 8718
2252.4495 8709 8695 8680 8664 8649 8634 8617 8602 8590 8586 8590 8600 8613
2258.7168 8623 8628 8629 8629 8629 8630 8630 8626 8615 8598 8575 8550 8525
2264.9844 8507 8499 8503 8515 8531 8541 8542 8533 8517 8502 8491 8487 8488
2271.2520 8490 8493 8496 8500 8503 8504 8501 8492 8480 8466 8454 8442 8432
2277.5195 8422 8415 8410 8408 8406 8403 8398 8390 8382 8373 8368 8365 8366
2283.7869 8370 8375 8380 8382 8379 8371 8360 8350 8342 8338 8335 8331 8325
2290.0544 8317 8310 8303 8298 8292 8285 8275 8264 8254 8246 8242 8241 8240
2296.3220 8238 8234 8229 8222 8215 8209 8201 8194 8187 8180 8175 8172 8170
2302.5896 8168 8164 8159 8152 8145 8137 8131 8124 8117 8110 8102 8095 8089
2308.8569 8083 8077 8069 8062 8055 8051 8048 8045 8038 8027 8015 8005 8001
2315.1245 8002 8005 8007 8002 7992 7977 7961 7946 7934 7925 7918 7912 7907
2321.3921 7902 7895 7889 7885 7882 7881 7879 7875 7866 7855 7841 7830 7822
2327.6597 7817 7815 7813 7809 7803 7796 7789 7784 7780 7778 7778 7780 7780
2333.9270 7777 7767 7749 7725 7700 7681 7673 7674 7680 7686 7688 7685 7678
2340.1946 7670 7662 7655 7650 7648 7650 7657 7669 7681 7691 7695 7692 7685
2346.4622 7676 7669 7665 7662 7661 7659 7656 7652 7646 7639 7631 7623 7617
2352.7297 7612 7608 7608 7611 7615 7620 7624 7626 7628 7630 7632 7632 7626
2358.9971 7615 7601 7587 7581 7584 7594 7604 7609 7607 7602 7599 7603 7616
2365.2646 7634 7650 7658 7658 7652 7644 7638 7636 7638 7643 7653 7663 7673
2371.5322 7680 7682 7679 7674 7669 7668 7673 7681 7689 7695 7698 7698 7699
2377.7998 7701 7708 7718 7731 7745 7757 7765 7770 7772 7773 7775 7780 7789
2384.0671 7802 7815 7827 7837 7844 7849 7854 7859 7866 7875 7884 7894 7904
2390.3347 7915 7927 7941 7956 7970 7983 7993 8002 8011 8020 8029 8039 8047
2396.6023 8054 8060 8066 8073 8081 8090 8099 8109 8121 8135 8149 8164 8177
2402.8699 8188 8198 8208 8219 8231 8245 8261 8277 8293 8308 8323 8336 8346
2409.1372 8355 8363 8370 8380 8392 8406 8421 8434 8444 8450 8454 8458 8465
2415.4048 8475 8488 8502 8515 8526 8537 8547 8557 8568 8578 8588 8597 8607
2421.6724 8618 8631 8645 8660 8673 8684 8692 8698 8704 8710 8719 8731 8743
2427.9399 8757 8769 8779 8786 8792 8796 8801 8807 8815 8823 8831 8839 8844
2434.2073 8848 8849 8848 8847 8846 8847 8850 8854 8861 8869 8878 8888 8898
2440.4749 8907 8916 8925 8934 8943 8950 8955 8958 8961 8966 8975 8987 9001
2446.7424 9014 9024 9032 9037 9041 9047 9054 9062 9070 9080 9089 9099 9107
2453.0100 9113 9118 9122 9126 9131 9139 9149 9159 9167 9174 9179 9180 9181
2459.2773 9180 9179 9181 9185 9192 9202 9213 9224 9233 9240 9246 9250 9255
2465.5449 9259 9264 9269 9275 9279 9280 9276 9270 9261 9254 9251 9253 9258
2471.8125 9265 9272 9277 9282 9286 9288 9289 9288 9287 9287 9289 9293 9299
2478.0801 9305 9310 9313 9313 9311 9308 9304 9300 9295 9288 9280 9273 9268
2484.3474 9267 9270 9275 9279 9280 9276 9268 9259 9250 9243 9238 9237 9239
2490.6150 9242 9244 9243 9238 9230 9222 9217 9216 9218 9220 9218 9213 9204
2496.8826 9194 9184 9176 9171 9167 9166 9167 9170 9173 9175 9176 9177 9178
2503.1501 9179 9181 9182 9183 9185 9188 9191 9194 9196 9196 9194 9191 9188
2509.4175 9189 9193 9200 9207 9213 9217 9217 9218 9220 9227 9237 9247 9254
2515.6851 9256 9253 9246 9240 9235 9233 9231 9229 9228 9227 9228 9229 9231
2521.9526 9232 9233 9235 9236 9239 9242 9243 9244 9244 9243 9241 9237 9232
2528.2202 9225 9219 9213 9210 9210 9211 9213 9217 9221 9227 9232 9237 9240
2534.4875 9242 9243 9243 9243 9244 9244 9245 9245 9246 9246 9247 9248 9250
2540.7551 9252 9255 9257 9260 9262 9263 9263 9262 9262 9264 9269 9276 9282
2547.0227 9286 9288 9289 9291 9293 9297 9302 9305 9307 9306 9305 9305 9307
2553.2903 9312 9321 9330 9338 9344 9347 9349 9350 9352 9354 9354 9354 9352
2559.5576 9352 9353 9357 9363 9370 9376 9380 9383 9387 9390 9394 9397 9398
2565.8252 9397 9394 9392 9389 9388 9388 9389 9391 9394 9398 9400 9401 9400
2572.0928 9399 9399 9402 9407 9413 9416 9415 9411 9404 9398 9395 9397 9401
2578.3604 9406 9412 9416 9419 9421 9421 9420 9419 9419 9421 9425 9432 9439
2584.6279 9446 9451 9454 9454 9452 9450 9448 9449 9454 9461 9470 9478 9485
2590.8953 9488 9489 9488 9486 9485 9484 9485 9486 9488 9492 9497 9503 9507
2597.1628 9509 9509 9506 9504 9505 9509 9516 9523 9529 9532 9534 9536 9538
2603.4304 9542 9547 9551 9553 9553 9552 9551 9551 9552 9554 9556 9557 9558
2609.6980 9558 9559 9562 9566 9570 9575 9578 9580 9581 9583 9585 9587 9587
2615.9653 9586 9585 9583 9584 9586 9588 9590 9591 9592 9594 9597 9601 9604
2622.2329 9605 9604 9603 9603 9604 9607 9611 9616 9621 9625 9629 9633 9637
2628.5005 9642 9647 9652 9656 9658 9658 9658 9657 9658 9661 9663 9665 9666
2634.7681 9666 9667 9670 9674 9680 9684 9687 9689 9690 9691 9694 9697 9700
2641.0354 9703 9705 9707 9709 9711 9714 9717 9719 9720 9719 9717 9714 9712
2647.3030 9712 9714 9717 9720 9722 9724 9724 9724 9725 9726 9728 9730 9732
2653.5706 9734 9735 9735 9734 9732 9730 9729 9730 9731 9733 9735 9737 9737
2659.8381 9736 9735 9733 9732 9732 9733 9735 9739 9742 9745 9747 9747 9747
2666.1055 9746 9747 9749 9752 9754 9754 9753 9751 9750 9750 9752 9755 9758
2672.3730 9760 9762 9763 9764 9765 9766 9768 9771 9774 9777 9780 9782 9782
2678.6406 9782 9781 9780 9781 9782 9782 9782 9782 9781 9781 9781 9782 9782
2684.9082 9782 9782 9782 9784 9787 9792 9798 9802 9804 9805 9804 9802 9801
2691.1755 9800 9800 9801 9802 9804 9806 9808 9809 9810 9811 9812 9814 9816
2697.4431 9818 9819 9818 9817 9815 9813 9812 9813 9814 9815 9816 9817 9817
2703.7107 9816 9816 9817 9818 9820 9822 9824 9825 9826 9827 9828 9829 9830
2709.9783 9830 9830 9828 9827 9827 9828 9830 9832 9832 9832 9830 9829 9828
2716.2456 9829 9832 9835 9839 9842 9845 9847 9847 9846 9845 9843 9842 9841
2722.5132 9840 9838 9837 9836 9836 9837 9838 9841 9843 9844 9846 9847 9848
2728.7808 9850 9852 9855 9857 9859 9861 9861 9860 9858 9856 9855 9853 9853
2735.0483 9853 9855 9858 9863 9868 9873 9874 9873 9869 9863 9859 9856 9856
2741.3157 9857 9860 9861 9863 9864 9865 9866 9868 9871 9873 9875 9877 9879
2747.5833 9880 9880 9879 9879 9880 9882 9884 9886 9888 9888 9888 9888 9888
2753.8508 9887 9887 9886 9886 9884 9884 9883 9883 9882 9883 9884 9886 9888
2760.1184 9890 9893 9895 9896 9897 9896 9895 9893 9891 9890 9891 9892 9894
2766.3857 9896 9897 9898 9898 9899 9899 9899 9899 9898 9898 9897 9896 9896
2772.6533 9897 9900 9903 9907 9910 9912 9913 9912 9911 9912 9914 9916 9918
2778.9209 9919 9918 9916 9913 9911 9910 9910 9911 9913 9915 9917 9919 9921
2785.1885 9923 9924 9924 9923 9921 9920 9920 9921 9922 9924 9925 9926 9927
2791.4558 9930 9933 9937 9941 9944 9945 9945 9943 9941 9941 9942 9945 9948
2797.7234 9950 9951 9950 9949 9949 9950 9953 9957 9961 9964 9966 9965 9963
2803.9910 9962 9961 9962 9965 9968 9971 9972 9972 9971 9970 9968 9966 9963
2810.2585 9959 9955 9951 9950 9951 9953 9956 9957 9958 9958 9959 9961 9964
2816.5259 9968 9971 9973 9971 9968 9964 9960 9957 9956 9956 9958 9960 9962
2822.7935 9962 9960 9956 9952 9948 9945 9946 9948 9951 9953 9953 9949 9944
2829.0610 9938 9933 9930 9930 9930 9929 9926 9921 9916 9911 9908 9906 9907
2835.3286 9908 9909 9908 9904 9898 9891 9882 9873 9865 9858 9853 9850 9848
2841.5959 9848 9849 9850 9852 9853 9853 9852 9850 9848 9845 9841 9835 9827
2847.8635 9819 9810 9801 9795 9792 9791 9793 9796 9798 9799 9799 9798 9796
2854.1311 9794 9791 9789 9787 9784 9782 9780 9779 9778 9777 9776 9774 9771
2860.3987 9767 9762 9757 9754 9752 9749 9747 9744 9741 9737 9734 9730 9726
2866.6660 9722 9718 9716 9714 9713 9712 9711 9708 9705 9702 9697 9692 9686
2872.9336 9680 9674 9670 9667 9667 9667 9668 9668 9667 9666 9664 9663 9661
2879.2012 9660 9659 9658 9658 9657 9657 9657 9656 9654 9652 9648 9646 9644
2885.4688 9646 9649 9654 9658 9660 9661 9660 9659 9656 9653 9648 9643 9639
2891.7361 9637 9639 9642 9646 9648 9647 9643 9638 9633 9631 9630 9631 9631
2898.0037 9631 9631 9630 9630 9630 9630 9630 9629 9627 9625 9622 9619 9616
2904.2712 9614 9612 9612 9613 9615 9618 9621 9621 9619 9613 9607 9601 9599
2910.5388 9600 9602 9604 9602 9598 9593 9590 9589 9590 9592 9592 9592 9590
2916.8062 9588 9587 9585 9584 9583 9582 9581 9581 9580 9579 9577 9576 9574
2923.0737 9572 9570 9566 9561 9557 9554 9553 9553 9553 9554 9554 9553 9551
2929.3413 9548 9546 9545 9544 9545 9547 9550 9553 9557 9559 9560 9559 9558
2935.6089 9559 9563 9568 9574 9578 9580 9580 9580 9581 9584 9587 9592 9595
2941.8762 9596 9596 9594 9592 9589 9588 9587 9587 9587 9587 9587 9588 9589
2948.1438 9589 9589 9587 9585 9583 9581 9580 9580 9578 9575 9571 9567 9563
2954.4114 9561 9560 9561 9562 9562 9561 9559 9556 9553 9550 9548 9546 9544
2960.6790 9541 9538 9535 9533 9533 9535 9538 9541 9544 9546 9545 9544 9541
2966.9463 9538 9536 9535 9536 9538 9541 9545 9548 9548 9546 9542 9538 9534
2973.2139 9532 9532 9533 9535 9535 9534 9533 9532 9535 9541 9549 9559 9567
2979.4814 9573 9576 9577 9574 9568 9557 9543 9528 9515 9506 9504 9509 9521
2985.7490 9537 9555 9574 9591 9607 9622 9634 9644 9652 9658 9662 9665 9666
2992.0164 9668 9671 9673 9675 9675 9674 9672 9671 9672 9676 9682 9689 9693
2998.2839 9695 9694 9691 9688 9686 9686 9687 9691 9695 9700 9704 9707 9706
3004.5515 9701 9693 9681 9670 9661 9656 9655 9657 9662 9666 9669 9672 9673
3010.8191 9674 9675 9677 9680 9683 9686 9688 9690 9690 9691 9690 9689 9687
3017.0864 9683 9678 9671 9665 9660 9658 9658 9660 9663 9667 9672 9679 9687
3023.3540 9696 9705 9714 9720 9725 9728 9729 9729 9729 9728 9729 9729 9728
3029.6216 9725 9720 9713 9705 9700 9700 9704 9712 9720 9727 9731 9732 9732
3035.8892 9732 9733 9734 9735 9735 9734 9731 9727 9722 9716 9710 9705 9701
3042.1565 9698 9696 9695 9694 9692 9690 9688 9687 9686 9685 9684 9683 9680
3048.4241 9677 9674 9672 9670 9669 9668 9666 9663 9656 9649 9641 9637 9637
3054.6917 9641 9648 9656 9663 9666 9668 9670 9672 9674 9677 9679 9680 9679
3060.9592 9678 9678 9680 9684 9688 9692 9695 9697 9700 9703 9707 9712 9717
3067.2266 9722 9727 9730 9734 9737 9742 9747 9753 9758 9763 9766 9769 9772
3073.4941 9778 9786 9795 9805 9814 9820 9824 9825 9825 9823 9821 9818 9815
3079.7617 9813 9813 9813 9812 9810 9807 9804 9802 9804 9807 9811 9814 9814
3086.0293 9812 9810 9808 9809 9812 9817 9823 9828 9831 9833 9834 9833 9833
3092.2966 9833 9834 9836 9838 9841 9842 9841 9840 9838 9838 9839 9841 9842
3098.5642 9843 9842 9838 9834 9828 9823 9819 9818 9819 9821 9825 9827 9827
3104.8318 9825 9819 9812 9805 9798 9793 9791 9793 9797 9803 9808 9811 9810
3111.0994 9803 9792 9779 9767 9761 9762 9768 9776 9782 9787 9788 9787 9785
3117.3667 9783 9781 9778 9775 9773 9775 9779 9785 9791 9794 9792 9787 9780
3123.6343 9773 9767 9765 9766 9769 9773 9777 9778 9777 9774 9771 9768 9767
3129.9019 9766 9766 9766 9767 9768 9770 9771 9772 9770 9768 9766 9764 9763
3136.1694 9763 9763 9763 9761 9758 9754 9750 9747 9746 9746 9748 9750 9753
3142.4368 9756 9760 9764 9767 9768 9766 9762 9759 9757 9758 9762 9766 9769
3148.7043 9771 9773 9774 9775 9774 9772 9769 9765 9760 9757 9757 9759 9763
3154.9719 9768 9773 9777 9780 9781 9780 9778 9775 9772 9770 9769 9770 9770
3161.2395 9770 9769 9768 9768 9770 9775 9781 9787 9791 9792 9791 9788 9785
3167.5068 9783 9784 9786 9790 9793 9794 9794 9794 9794 9797 9802 9807 9811
3173.7744 9812 9810 9806 9803 9801 9801 9802 9802 9801 9800 9799 9800 9803
3180.0420 9807 9812 9817 9820 9821 9821 9819 9817 9816 9816 9817 9820 9822
3186.3096 9824 9824 9823 9821 9820 9819 9820 9821 9824 9827 9829 9830 9829
3192.5769 9827 9826 9826 9830 9836 9845 9853 9858 9861 9862 9863 9864 9867
3198.8445 9870 9872 9873 9872 9870 9869 9869 9870 9872 9873 9873 9872 9872
3205.1121 9873 9877 9882 9887 9893 9897 9899 9900 9901 9902 9903 9905 9906
3211.3796 9906 9907 9909 9911 9915 9920 9928 9936 9943 9947 9948 9946 9943
3217.6470 9939 9938 9939 9943 9948 9953 9957 9960 9961 9961 9960 9959 9958
3223.9146 9958 9960 9963 9968 9972 9976 9979 9981 9982 9983 9983 9983 9983
3230.1821 9984 9985 9986 9987 9986 9983 9978 9972 9967 9965 9965 9969 9973
3236.4497 9976 9978 9977 9976 9975 9974 9973 9970 9965 9956 9945 9935 9929
3242.7170 9926 9926 9928 9930 9930 9927 9923 9917 9910 9903 9897 9892 9889
3248.9846 9887 9886 9885 9884 9882 9878 9873 9866 9859 9852 9847 9843 9840
3255.2522 9836 9832 9827 9825 9828 9833 9840 9843 9841 9833 9820 9808 9799
3261.5198 9794 9793 9793 9795 9796 9797 9797 9797 9796 9795 9794 9791 9788
3267.7871 9785 9782 9781 9780 9782 9784 9787 9788 9788 9785 9780 9775 9770
3274.0547 9768 9768 9770 9772 9772 9770 9768 9767 9768 9771 9776 9779 9781
3280.3223 9779 9775 9770 9765 9761 9758 9757 9758 9759 9760 9761 9760 9758
3286.5898 9755 9752 9752 9753 9756 9760 9763 9765 9765 9763 9760 9757 9753
3292.8572 9749 9747 9747 9749 9752 9756 9759 9760 9760 9758 9756 9755 9755
3299.1248 9757 9762 9767 9771 9773 9771 9767 9763 9762 9765 9769 9774 9778
3305.3923 9780 9783 9785 9789 9791 9791 9788 9783 9781 9781 9785 9791 9798
3311.6599 9803 9806 9807 9804 9801 9800 9803 9809 9819 9828 9833 9832 9826
3317.9272 9817 9809 9806 9806 9810 9815 9819 9822 9823 9823 9823 9823 9823
3324.1948 9824 9826 9826 9824 9821 9815 9807 9799 9791 9783 9776 9771 9767
3330.4624 9764 9761 9759 9754 9747 9738 9726 9715 9704 9697 9691 9687 9682
3336.7300 9677 9671 9665 9660 9658 9657 9655 9652 9645 9635 9624 9613 9605
3342.9973 9600 9597 9597 9598 9598 9597 9594 9589 9582 9574 9566 9559 9554
3349.2649 9550 9549 9548 9549 9548 9546 9544 9542 9542 9543 9544 9544 9542
3355.5325 9537 9532 9528 9526 9526 9526 9525 9522 9519 9517 9516 9516 9516
3361.8000 9515 9513 9510 9508 9506 9505 9504 9501 9497 9494 9491 9490 9489
3368.0674 9488 9486 9483 9480 9478 9478 9479 9481 9483 9485 9484 9480 9473
3374.3350 9464 9455 9450 9448 9451 9454 9457 9458 9458 9458 9458 9461 9464
3380.6025 9466 9466 9463 9458 9451 9444 9439 9436 9436 9438 9439 9439 9438
3386.8701 9437 9437 9437 9436 9434 9432 9429 9426 9425 9423 9421 9418 9415
3393.1375 9413 9413 9414 9417 9419 9421 9422 9421 9418 9413 9408 9404 9402
3399.4050 9401 9402 9402 9401 9399 9397 9396 9395 9394 9392 9389 9386 9384
3405.6726 9384 9384 9385 9386 9386 9386 9387 9389 9391 9392 9391 9388 9386
3411.9402 9387 9390 9397 9403 9405 9402 9395 9384 9374 9368 9366 9369 9374
3418.2075 9380 9385 9389 9391 9392 9392 9389 9384 9377 9370 9363 9358 9356
3424.4751 9357 9361 9368 9375 9381 9383 9382 9377 9371 9368 9368 9370 9373
3430.7427 9374 9374 9373 9371 9369 9368 9367 9366 9366 9365 9365 9364 9364
3437.0103 9364 9364 9364 9364 9365 9365 9366 9366 9366 9365 9366 9367 9371
3443.2776 9373 9375 9373 9370 9366 9363 9362 9362 9361 9357 9353 9349 9347
3449.5452 9347 9349 9353 9356 9358 9359 9358 9356 9355 9353 9353 9353 9354
3455.8127 9354 9354 9352 9349 9346 9344 9344 9345 9347 9348 9348 9347 9347
3462.0803 9346 9346 9345 9344 9342 9340 9339 9340 9343 9347 9351 9355 9356
3468.3477 9357 9356 9353 9350 9345 9339 9333 9328 9325 9324 9324 9323 9320
3474.6152 9317 9315 9314 9315 9319 9323 9326 9328 9331 9333 9337 9340 9344
3480.8828 9347 9349 9349 9347 9344 9340 9335 9332 9330 9330 9331 9332 9330
3487.1504 9328 9325 9323 9323 9324 9324 9323 9320 9315 9311 9310 9312 9317
3493.4177 9324 9328 9329 9326 9321 9316 9313 9312 9312 9314 9316 9318 9320
3499.6853 9322 9325 9326 9326 9325 9323 9321 9319 9318 9319 9321 9321 9319
3505.9529 9314 9308 9303 9301 9304 9311 9319 9326 9329 9330 9327 9324 9319
3512.2205 9315 9311 9308 9306 9305 9306 9309 9312 9315 9315 9314 9311 9308
3518.4878 9306 9305 9305 9304 9304 9305 9307 9312 9318 9325 9329 9331 9330
3524.7554 9328 9325 9322 9319 9317 9316 9316 9316 9314 9312 9310 9308 9307
3531.0229 9306 9305 9304 9302 9302 9302 9303 9303 9302 9301 9300 9303 9308
3537.2905 9314 9317 9316 9312 9307 9304 9304 9307 9312 9314 9313 9310 9307
3543.5579 9306 9308 9312 9317 9321 9322 9320 9316 9311 9305 9300 9297 9297
3549.8254 9298 9300 9301 9300 9296 9292 9289 9289 9290 9293 9295 9297 9298
3556.0930 9298 9298 9298 9299 9299 9298 9295 9292 9288 9286 9287 9291 9295
3562.3606 9300 9304 9306 9308 9313 9322 9332 9342 9345 9339 9328 9317 9310
3568.6282 9306 9304 9301 9298 9296 9295 9296 9297 9299 9300 9302 9304 9307
3574.8955 9309 9309 9307 9304 9302 9301 9301 9300 9297 9292 9288 9286 9289
3581.1631 9295 9303 9309 9310 9306 9298 9291 9287 9290 9301 9318 9333 9340
3587.4307 9336 9326 9315 9307 9303 9301 9302 9303 9306 9310 9314 9318 9321
3593.6982 9321 9319 9316 9310 9305 9301 9300 9302 9305 9310 9312 9311 9308
3599.9656 9304 9301 9300 9300 9301 9302 9303 9302 9300 9297 9295 9292 9289
3606.2332 9289 9292 9300 9312 9323 9331 9332 9326 9319 9313 9314 9321 9333
3612.5007 9345 9349 9343 9331 9318 9308 9302 9299 9297 9295 9293 9292 9295
3618.7683 9302 9313 9323 9331 9336 9336 9332 9324 9314 9304 9296 9292 9292
3625.0356 9294 9297 9299 9299 9297 9292 9288 9290 9299 9310 9317 9318 9317
3631.3032 9314 9312 9310 9308 9305 9300 9294 9289 9286 9285 9285 9286 9288
3637.5708 9290 9291 9293 9295 9299 9305 9310 9314 9315 9314 9313 9311 9310
3643.8384 9307 9304 9299 9295 9293 9295 9302 9312 9323 9336 9350 9363 9370
3650.1057 9363 9346 9325 9309 9299 9295 9294 9297 9302 9311 9321 9331 9334
3656.3733 9328 9317 9307 9300 9297 9298 9300 9304 9307 9308 9308 9305 9301
3662.6409 9297 9295 9294 9296 9298 9300 9302 9304 9306 9309 9314 9319 9324
3668.9084 9329 9333 9334 9331 9325 9318 9311 9306 9302 9301 9301 9306 9315
3675.1758 9327 9336 9341 9343 9345 9345 9342 9334 9322 9308 9294 9285 9279
3681.4434 9279 9281 9288 9296 9306 9314 9318 9317 9311 9302 9293 9288 9290
3687.7109 9304 9326 9345 9356 9359 9357 9352 9345 9337 9330 9323 9318 9314
3693.9785 9311 9306 9299 9290 9281 9274 9272 9277 9288 9301 9313 9319 9320
3700.2458 9317 9311 9306 9305 9307 9310 9311 9311 9311 9309 9307 9303 9299
3706.5134 9295 9293 9296 9303 9314 9324 9330 9332 9330 9331 9336 9343 9347
3712.7810 9345 9339 9331 9323 9316 9312 9308 9306 9304 9304 9306 9309 9312
3719.0486 9312 9309 9304 9300 9296 9295 9295 9295 9296 9299 9307 9320 9337
3725.3159 9355 9366 9364 9350 9331 9315 9303 9299 9300 9304 9310 9317 9322
3731.5835 9324 9321 9316 9310 9306 9306 9309 9313 9314 9310 9304 9298 9296
3737.8511 9297 9300 9305 9309 9311 9312 9311 9311 9311 9313 9318 9327 9342
3744.1187 9358 9362 9353 9340 9327 9317 9309 9305 9304 9308 9313 9315 9311
3750.3860 9305 9301 9303 9309 9317 9320 9321 9320 9320 9322 9323 9324 9323
3756.6536 9319 9316 9313 9313 9313 9313 9311 9309 9308 9309 9312 9316 9320
3762.9211 9323 9323 9320 9313 9304 9295 9290 9291 9295 9300 9304 9306 9304
3769.1887 9299 9294 9290 9289 9292 9297 9303 9310 9316 9319 9322 9323 9325
3775.4561 9326 9326 9324 9319 9314 9311 9311 9313 9316 9315 9310 9306 9303
3781.7236 9305 9310 9318 9326 9331 9333 9332 9329 9327 9326 9324 9320 9314
3787.9912 9308 9303 9302 9305 9313 9322 9328 9331 9330 9326 9322 9318 9314
3794.2588 9311 9309 9308 9308 9310 9313 9316 9317 9316 9314 9312 9312 9318
3800.5261 9333 9354 9368 9367 9353 9335 9318 9304 9295 9289 9287 9289 9295
3806.7937 9304 9314 9320 9322 9319 9313 9305 9297 9291 9288 9287 9289 9292
3813.0613 9295 9300 9305 9313 9321 9327 9327 9320 9313 9309 9308 9312 9318
3819.3289 9325 9331 9332 9327 9321 9319 9322 9325 9328 9328 9327 9324 9322
3825.5962 9322 9325 9330 9333 9333 9328 9321 9314 9307 9304 9305 9309 9315
3831.8638 9320 9323 9324 9325 9326 9328 9329 9330 9330 9331 9337 9348 9361
3838.1313 9369 9368 9358 9343 9327 9317 9313 9314 9318 9321 9321 9317 9311
3844.3989 9306 9303 9303 9304 9306 9309 9311 9314 9316 9319 9322 9326 9332
3850.6663 9340 9349 9358 9366 9370 9369 9362 9352 9342 9333 9327 9324 9324
3856.9338 9328 9333 9334 9332 9326 9318 9313 9312 9316 9326 9337 9345 9350
3863.2014 9351 9350 9345 9340 9335 9332 9333 9335 9338 9339 9339 9333 9320
3869.4690 9302 9289 9286 9290 9298 9308 9317 9326 9332 9334 9331 9327 9324
3875.7363 9323 9324 9326 9329 9332 9336 9342 9348 9354 9355 9350 9341 9331
3882.0039 9323 9318 9318 9322 9331 9344 9358 9365 9362 9352 9341 9332 9327
3888.2715 9325 9325 9327 9330 9333 9334 9333 9331 9327 9324 9322 9319 9316
3894.5391 9314 9312 9312 9314 9317 9321 9325 9329 9330 9330 9328 9326 9326
3900.8064 9328 9331 9336 9340 9343 9344 9343 9340 9336 9333 9332 9330 9329
3907.0740 9327 9326 9325 9325 9326 9327 9328 9327 9326 9325 9326 9327 9328
3913.3416 9327 9324 9320 9316 9315 9316 9320 9324 9325 9323 9319 9314 9311
3919.6091 9311 9314 9318 9323 9326 9327 9327 9327 9327 9329 9331 9333 9332
3925.8765 9330 9326 9323 9320 9320 9322 9326 9328 9328 9325 9321 9319 9320
3932.1440 9322 9325 9326 9324 9319 9314 9312 9312 9316 9321 9326 9329 9329
3938.4116 9327 9324 9323 9325 9329 9335 9340 9341 9340 9338 9336 9336 9336
3944.6792 9334 9332 9329 9326 9325 9325 9324 9322 9319 9317 9316 9318 9322
3950.9465 9325 9327 9327 9324 9319 9314 9310 9308 9309 9312 9316 9320 9321
3957.2141 9321 9319 9317 9315 9316 9320 9328 9336 9343 9346 9345 9340 9334
3963.4817 9328 9324 9322 9320 9319 9318 9319 9321 9323 9325 9327 9327 9326
3969.7493 9324 9323 9321 9321 9323 9326 9331 9336 9340 9342 9341 9337 9330
3976.0166 9323 9318 9315 9316 9320 9325 9328 9329 9327 9324 9321 9320 9320
3982.2842 9320 9320 9319 9317 9315 9316 9318 9322 9326 9330 9333 9336 9337
3988.5518 9338 9338 9338 9337 9336 9334 9334 9334 9336 9337 9336 9331 9324
3994.8193 9315 9309 9306 9307 9310 9313 9316 9317 9319 9321 9323 9326
##END= 
