##TITLE= INCACIDOTANNICO
##JCAMP-DX= 4.24
##DATA TYPE= INFRARED SPECTRUM
##ORIGIN= JASCO
##OWNER= 
##DATE= 22/04/13
##TIME= 17:18:40
##SPECTROMETER/DATA SYSTEM= 
##RESOLUTION= 
##DELTAX=   0.48211674
##XUNITS= 1/CM
##YUNITS= TRANSMITTANCE
##XFACTOR= 1.00000
##YFACTOR= 0.0001
##FIRSTX=   599.7532
##LASTX=  4000.1226
##NPOINTS=     7054
##FIRSTY=      0.76651
##MAXY=      1.02565
##MINY=      0.46782
##XYDATA= (X++(Y..Y))
599.7532 7665 7715 7751 7766 7759 7741 7723 7719 7731 7756 7785 7809 7822 7823
606.5029 7817 7807 7798 7793 7793 7799 7808 7816 7820 7817 7810 7804 7804 7811
613.2525 7818 7815 7797 7764 7726 7699 7695 7720 7767 7822 7868 7893 7897 7886
620.0021 7870 7855 7847 7844 7844 7845 7846 7848 7853 7862 7876 7891 7905 7910
626.7518 7905 7887 7857 7822 7787 7760 7745 7745 7756 7775 7794 7806 7804 7785
633.5014 7751 7709 7669 7639 7629 7639 7670 7713 7761 7804 7833 7841 7828 7799
640.2510 7762 7728 7702 7685 7674 7666 7658 7648 7635 7620 7602 7584 7572 7571
647.0007 7581 7600 7619 7631 7632 7625 7616 7613 7616 7624 7633 7639 7640 7640
653.7503 7640 7642 7645 7649 7656 7671 7697 7736 7780 7815 7827 7811 7772 7724
660.4999 7687 7675 7693 7735 7792 7851 7905 7951 7989 8022 8053 8082 8107 8120
667.2496 8099 8014 7884 7816 7834 7880 7917 7934 7926 7895 7849 7799 7761 7743
673.9992 7746 7760 7774 7780 7780 7781 7788 7803 7821 7832 7837 7839 7847 7865
680.7488 7887 7904 7905 7891 7869 7847 7827 7806 7780 7750 7721 7705 7707 7728
687.4985 7762 7800 7836 7867 7891 7909 7916 7912 7897 7875 7852 7835 7829 7833
694.2481 7840 7842 7829 7799 7758 7719 7692 7683 7686 7690 7687 7673 7656 7648
700.9977 7652 7665 7676 7678 7672 7670 7683 7713 7753 7785 7798 7788 7762 7735
707.7474 7715 7706 7708 7716 7730 7746 7763 7777 7785 7786 7787 7796 7820 7862
714.4970 7915 7969 8011 8035 8043 8040 8035 8029 8019 7994 7948 7881 7802 7729
721.2466 7671 7630 7598 7563 7523 7479 7442 7420 7419 7433 7454 7469 7471 7456
727.9963 7427 7390 7352 7315 7283 7255 7229 7203 7176 7147 7116 7084 7052 7020
734.7459 6986 6947 6900 6847 6791 6737 6691 6652 6615 6570 6510 6431 6334 6229
741.4955 6124 6025 5934 5847 5756 5658 5553 5445 5340 5241 5148 5058 4970 4886
748.2452 4811 4751 4710 4686 4678 4680 4690 4707 4735 4774 4821 4868 4907 4933
754.9948 4949 4958 4966 4974 4980 4981 4983 4995 5026 5077 5134 5178 5190 5163
761.7444 5105 5036 4977 4942 4934 4951 4988 5045 5121 5219 5338 5475 5625 5784
768.4941 5950 6119 6290 6462 6632 6801 6968 7133 7294 7447 7590 7718 7834 7939
775.2437 8038 8130 8215 8291 8356 8411 8460 8506 8551 8594 8632 8661 8680 8690
781.9933 8695 8701 8711 8725 8740 8752 8759 8760 8756 8750 8745 8745 8756 8777
788.7430 8807 8841 8871 8892 8905 8912 8917 8924 8934 8946 8961 8977 8996 9018
795.4926 9041 9066 9092 9122 9155 9188 9218 9239 9251 9254 9250 9239 9224 9204
802.2422 9184 9165 9151 9143 9141 9143 9147 9153 9162 9174 9186 9195 9196 9187
808.9919 9170 9147 9124 9104 9089 9077 9067 9058 9049 9043 9043 9049 9060 9073
815.7415 9085 9093 9097 9095 9089 9080 9070 9061 9055 9053 9054 9057 9062 9070
822.4911 9083 9098 9114 9128 9139 9150 9163 9181 9201 9219 9231 9236 9239 9243
829.2408 9253 9266 9280 9290 9296 9298 9300 9301 9299 9289 9267 9234 9197 9164
835.9904 9141 9131 9132 9138 9143 9144 9142 9140 9141 9149 9160 9173 9184 9189
842.7401 9190 9189 9188 9189 9192 9196 9199 9203 9208 9213 9218 9221 9219 9211
849.4897 9200 9188 9181 9180 9187 9198 9211 9223 9234 9245 9259 9277 9297 9319
856.2393 9338 9351 9356 9351 9336 9311 9276 9232 9180 9123 9066 9010 8959 8914
862.9890 8873 8837 8808 8788 8779 8781 8789 8799 8806 8807 8802 8791 8777 8759
869.7386 8740 8720 8701 8683 8667 8651 8637 8625 8616 8611 8610 8610 8610 8608
876.4882 8605 8604 8605 8611 8622 8639 8660 8684 8708 8732 8754 8776 8798 8822
883.2379 8845 8867 8884 8897 8906 8913 8921 8932 8948 8966 8986 9004 9016 9022
889.9875 9020 9014 9006 9000 8996 8996 8997 8998 8999 8998 8995 8992 8989 8988
896.7371 8989 8993 9000 9008 9018 9027 9036 9044 9049 9051 9051 9050 9049 9049
903.4868 9050 9051 9051 9051 9051 9052 9056 9060 9066 9072 9080 9088 9095 9101
910.2364 9104 9104 9103 9105 9112 9125 9143 9163 9180 9191 9195 9193 9185 9173
916.9860 9157 9138 9115 9091 9067 9048 9032 9021 9011 9002 8991 8980 8970 8966
923.7357 8967 8974 8986 8998 9008 9014 9014 9009 9001 8991 8981 8972 8965 8960
930.4853 8957 8956 8957 8962 8970 8978 8986 8993 8997 8999 8997 8992 8982 8966
937.2349 8946 8922 8899 8879 8864 8854 8848 8844 8841 8839 8836 8831 8824 8816
943.9846 8806 8799 8795 8794 8797 8802 8808 8815 8819 8821 8818 8810 8799 8787
950.7342 8776 8769 8765 8762 8758 8749 8737 8723 8710 8700 8694 8690 8688 8687
957.4838 8686 8687 8689 8692 8694 8695 8693 8691 8688 8687 8686 8684 8682 8680
964.2335 8678 8677 8678 8683 8690 8701 8715 8729 8744 8758 8770 8780 8789 8797
970.9831 8801 8803 8799 8791 8781 8770 8761 8754 8747 8738 8728 8716 8703 8693
977.7327 8683 8674 8663 8648 8630 8609 8589 8569 8550 8530 8508 8481 8449 8415
984.4824 8381 8349 8320 8294 8272 8251 8231 8211 8191 8170 8146 8118 8085 8047
991.2320 8007 7965 7926 7890 7857 7827 7798 7771 7746 7724 7702 7681 7658 7633
997.9816 7603 7571 7536 7500 7465 7432 7403 7377 7353 7330 7304 7275 7243 7208
1004.7313 7173 7139 7107 7079 7054 7032 7011 6990 6970 6951 6933 6916 6900
1010.9988 6882 6864 6844 6824 6804 6784 6763 6741 6717 6695 6674 6657 6644
1017.2663 6632 6622 6611 6599 6584 6565 6540 6511 6479 6445 6411 6377 6344
1023.5338 6310 6277 6248 6226 6213 6208 6209 6212 6216 6221 6231 6247 6272
1029.8014 6303 6337 6371 6404 6436 6469 6505 6545 6588 6633 6678 6723 6769
1036.0688 6818 6869 6923 6978 7033 7089 7145 7203 7260 7316 7368 7415 7458
1042.3364 7499 7541 7588 7639 7694 7750 7807 7861 7915 7967 8017 8066 8111
1048.6039 8153 8192 8227 8257 8282 8299 8307 8309 8306 8302 8299 8301 8305
1054.8715 8311 8315 8316 8315 8311 8309 8308 8311 8316 8323 8329 8331 8328
1061.1389 8321 8310 8299 8289 8281 8273 8265 8253 8239 8225 8212 8202 8196
1067.4065 8193 8191 8191 8192 8197 8204 8213 8222 8226 8225 8218 8206 8192
1073.6740 8177 8162 8147 8130 8113 8097 8084 8077 8076 8081 8086 8089 8086
1079.9415 8077 8064 8048 8033 8021 8013 8009 8009 8011 8016 8022 8030 8038
1086.2090 8048 8060 8073 8087 8103 8122 8141 8162 8182 8200 8216 8230 8244
1092.4766 8258 8274 8291 8308 8323 8337 8350 8363 8378 8394 8410 8426 8441
1098.7440 8456 8472 8488 8504 8519 8533 8545 8556 8570 8587 8606 8626 8646
1105.0116 8666 8685 8703 8719 8734 8747 8758 8768 8778 8789 8801 8814 8826
1111.2791 8837 8847 8858 8872 8888 8905 8920 8933 8941 8945 8946 8946 8947
1117.5466 8953 8962 8974 8987 8999 9006 9007 9003 8994 8983 8971 8960 8950
1123.8141 8943 8937 8931 8923 8911 8895 8874 8851 8827 8804 8782 8762 8743
1130.0817 8726 8711 8696 8680 8664 8645 8625 8603 8583 8563 8544 8525 8505
1136.3491 8484 8462 8441 8421 8403 8385 8368 8350 8330 8310 8289 8269 8250
1142.6167 8232 8215 8197 8178 8155 8127 8095 8058 8018 7976 7932 7886 7838
1148.8842 7789 7740 7692 7645 7600 7554 7509 7465 7422 7380 7339 7299 7259
1155.1517 7218 7179 7140 7102 7065 7028 6991 6954 6917 6881 6847 6813 6780
1161.4192 6747 6712 6675 6637 6598 6560 6523 6488 6453 6418 6380 6341 6299
1167.6868 6257 6218 6182 6150 6121 6093 6064 6033 6000 5967 5934 5905 5878
1173.9542 5855 5834 5814 5793 5771 5749 5727 5706 5686 5669 5652 5637 5622
1180.2218 5608 5593 5579 5563 5547 5529 5509 5488 5465 5442 5419 5397 5378
1186.4893 5360 5344 5331 5318 5308 5297 5288 5278 5269 5261 5256 5253 5252
1192.7568 5251 5251 5252 5253 5256 5262 5270 5280 5292 5303 5315 5327 5341
1199.0243 5355 5372 5390 5408 5428 5447 5466 5486 5507 5528 5549 5569 5587
1205.2919 5603 5620 5636 5652 5669 5686 5704 5722 5741 5761 5782 5803 5825
1211.5593 5848 5872 5897 5924 5952 5981 6010 6038 6065 6090 6116 6141 6167
1217.8269 6193 6218 6243 6268 6294 6324 6357 6395 6435 6477 6519 6562 6606
1224.0944 6652 6700 6752 6807 6863 6917 6965 7005 7036 7057 7073 7083 7090
1230.3619 7094 7097 7098 7101 7106 7115 7128 7144 7162 7182 7204 7228 7257
1236.6294 7291 7329 7372 7420 7472 7526 7579 7629 7674 7713 7745 7769 7786
1242.8970 7793 7793 7784 7771 7754 7736 7717 7698 7679 7660 7641 7623 7607
1249.1644 7593 7582 7571 7561 7550 7537 7523 7508 7492 7475 7457 7436 7414
1255.4320 7392 7369 7347 7326 7305 7283 7262 7243 7227 7216 7210 7212 7224
1261.6995 7246 7279 7320 7368 7422 7479 7530 7565 7572 7549 7509 7478 7487
1267.9670 7553 7670 7806 7921 7983 7978 7915 7818 7714 7620 7543 7485 7443
1274.2345 7415 7400 7399 7408 7427 7453 7486 7524 7568 7614 7662 7709 7755
1280.5021 7799 7842 7882 7919 7952 7979 8001 8018 8031 8039 8044 8044 8039
1286.7695 8030 8018 8003 7986 7966 7944 7920 7893 7864 7834 7803 7771 7737
1293.0371 7702 7664 7624 7583 7540 7495 7449 7402 7355 7309 7263 7218 7173
1299.3046 7127 7081 7036 6990 6946 6903 6861 6820 6782 6746 6713 6682 6655
1305.5721 6630 6606 6583 6559 6536 6512 6489 6467 6447 6429 6413 6398 6385
1311.8396 6374 6365 6359 6357 6359 6363 6369 6376 6384 6391 6397 6404 6411
1318.1072 6419 6428 6439 6451 6465 6479 6493 6507 6521 6536 6552 6570 6588
1324.3746 6608 6628 6648 6668 6687 6706 6725 6743 6759 6776 6792 6807 6824
1330.6422 6840 6856 6873 6891 6909 6927 6945 6962 6978 6992 7005 7017 7028
1336.9097 7037 7045 7052 7060 7069 7082 7099 7119 7141 7162 7180 7195 7208
1343.1772 7220 7232 7245 7260 7276 7293 7310 7328 7346 7364 7384 7405 7429
1349.4447 7454 7480 7506 7532 7559 7586 7614 7644 7676 7709 7743 7777 7811
1355.7123 7842 7871 7899 7925 7951 7975 7998 8019 8036 8050 8060 8067 8072
1361.9797 8076 8083 8092 8105 8120 8135 8149 8163 8175 8186 8195 8204 8211
1368.2473 8218 8225 8233 8240 8247 8254 8261 8269 8276 8281 8285 8287 8289
1374.5148 8294 8305 8319 8335 8351 8367 8382 8396 8410 8424 8439 8455 8471
1380.7823 8486 8501 8514 8527 8538 8550 8561 8573 8584 8595 8605 8614 8625
1387.0498 8638 8657 8681 8707 8732 8756 8779 8801 8823 8846 8868 8889 8908
1393.3174 8925 8939 8955 8974 8998 9024 9049 9068 9083 9093 9101 9111 9125
1399.5848 9143 9163 9183 9201 9219 9236 9251 9265 9276 9284 9293 9304 9318
1405.8524 9337 9356 9375 9392 9408 9423 9436 9448 9459 9468 9476 9483 9492
1412.1199 9502 9515 9529 9543 9556 9567 9573 9576 9575 9572 9569 9566 9561
1418.3875 9553 9542 9535 9536 9545 9558 9571 9581 9586 9586 9583 9580 9582
1424.6549 9591 9603 9616 9628 9638 9645 9649 9649 9643 9630 9607 9577 9544
1430.9225 9512 9478 9442 9398 9348 9296 9247 9205 9165 9118 9049 8947 8830
1437.1899 8734 8673 8636 8604 8572 8535 8495 8457 8422 8392 8366 8344 8326
1443.4575 8312 8302 8297 8296 8296 8298 8300 8303 8310 8323 8344 8371 8400
1449.7250 8430 8458 8486 8513 8539 8565 8591 8617 8644 8671 8697 8723 8749
1455.9926 8776 8806 8839 8877 8922 8970 9019 9065 9106 9140 9168 9190 9209
1462.2600 9226 9239 9248 9255 9261 9270 9289 9315 9345 9376 9407 9440 9476
1468.5276 9513 9552 9590 9624 9652 9671 9680 9677 9674 9685 9711 9743 9774
1474.7950 9801 9822 9839 9853 9867 9883 9899 9914 9927 9937 9945 9952 9959
1481.0626 9968 9980 9996 10012 10027 10039 10047 10049 10047 10039 10025 10004
1486.8480 9977 9948 9922 9899 9876 9851 9826 9808 9803 9809 9818 9827 9832
1493.1155 9835 9836 9835 9832 9825 9815 9803 9794 9791 9792 9797 9803 9812
1499.3831 9823 9834 9844 9854 9863 9873 9883 9895 9907 9919 9930 9939 9940
1505.6505 9924 9877 9815 9773 9756 9747 9736 9720 9700 9678 9650 9615 9571
1511.9181 9520 9467 9420 9381 9350 9322 9296 9268 9236 9203 9175 9161 9161
1518.1855 9166 9171 9172 9165 9148 9119 9089 9076 9081 9092 9100 9101 9095
1524.4531 9082 9065 9045 9026 9010 8996 8981 8966 8951 8938 8926 8914 8901
1530.7206 8886 8869 8850 8829 8806 8785 8771 8767 8773 8784 8796 8807 8815
1536.9882 8821 8822 8819 8812 8807 8813 8834 8860 8888 8919 8954 8990 9022
1543.2556 9048 9069 9089 9113 9142 9172 9199 9221 9237 9247 9253 9253 9250
1549.5232 9248 9254 9270 9291 9312 9328 9339 9345 9348 9355 9369 9388 9409
1555.7906 9426 9438 9443 9438 9415 9367 9314 9314 9361 9410 9447 9475 9496
1562.0582 9511 9522 9528 9528 9524 9518 9514 9514 9517 9522 9525 9525 9520
1568.3257 9508 9490 9472 9465 9469 9480 9490 9497 9500 9499 9495 9491 9485
1574.5933 9474 9454 9419 9377 9346 9335 9336 9339 9337 9330 9318 9303 9287
1580.8607 9273 9261 9250 9240 9230 9220 9210 9199 9187 9174 9158 9139 9116
1587.1283 9090 9060 9026 8990 8950 8910 8868 8828 8789 8753 8718 8684 8648
1593.3959 8609 8565 8517 8464 8410 8356 8303 8250 8199 8149 8101 8054 8008
1599.6633 7964 7922 7885 7852 7823 7796 7771 7749 7729 7713 7698 7685 7673
1605.9309 7661 7652 7645 7641 7642 7646 7654 7664 7677 7691 7707 7725 7746
1612.1984 7773 7807 7847 7889 7930 7966 7997 8027 8063 8112 8168 8219 8259
1618.4659 8292 8319 8342 8361 8375 8384 8390 8393 8393 8393 8397 8409 8425
1624.7334 8443 8460 8475 8489 8503 8518 8537 8560 8585 8612 8639 8666 8695
1631.0010 8727 8760 8793 8823 8850 8872 8890 8905 8919 8934 8953 8976 8998
1637.2684 9020 9040 9060 9078 9095 9110 9125 9138 9150 9161 9170 9179 9186
1643.5360 9190 9191 9186 9174 9154 9128 9106 9099 9109 9127 9147 9162 9172
1649.8035 9178 9180 9178 9173 9161 9133 9082 9033 9036 9066 9094 9116 9131
1656.0710 9141 9146 9148 9147 9145 9142 9138 9133 9126 9117 9106 9091 9075
1662.3385 9058 9044 9036 9032 9029 9025 9018 9008 8996 8983 8968 8951 8928
1668.6061 8898 8867 8843 8826 8815 8805 8793 8781 8769 8759 8747 8730 8704
1674.8735 8669 8633 8608 8594 8584 8573 8558 8537 8510 8478 8443 8410 8382
1681.1411 8359 8338 8316 8288 8246 8184 8113 8077 8078 8085 8086 8079 8065
1687.4086 8046 8024 8000 7977 7956 7938 7921 7904 7888 7871 7854 7836 7819
1693.6761 7801 7782 7760 7736 7712 7696 7691 7690 7687 7682 7673 7661 7652
1699.9436 7661 7693 7723 7737 7741 7741 7740 7740 7743 7749 7761 7779 7802
1706.2112 7831 7860 7886 7907 7922 7933 7943 7955 7970 7989 8008 8026 8041
1712.4786 8053 8062 8073 8086 8104 8125 8143 8155 8159 8162 8174 8209 8262
1718.7462 8314 8356 8387 8413 8437 8460 8483 8506 8530 8556 8585 8615 8645
1725.0137 8674 8703 8731 8760 8787 8812 8833 8850 8867 8885 8909 8936 8964
1731.2813 8988 9007 9022 9031 9041 9057 9088 9125 9160 9190 9217 9241 9262
1737.5487 9278 9288 9294 9300 9313 9335 9362 9387 9406 9421 9433 9443 9455
1743.8163 9469 9484 9500 9515 9528 9539 9548 9556 9564 9572 9580 9586 9590
1750.0837 9594 9600 9611 9627 9646 9665 9683 9699 9712 9723 9732 9738 9742
1756.3513 9746 9750 9755 9762 9770 9779 9787 9793 9795 9795 9794 9794 9800
1762.6188 9809 9819 9826 9831 9833 9833 9832 9831 9830 9827 9825 9824 9826
1768.8864 9828 9830 9830 9826 9817 9805 9796 9798 9811 9827 9841 9850 9855
1775.1538 9857 9858 9859 9862 9866 9871 9876 9879 9880 9876 9868 9861 9856
1781.4214 9857 9862 9869 9875 9878 9877 9875 9873 9874 9877 9882 9887 9888
1787.6888 9888 9885 9880 9874 9868 9861 9853 9846 9840 9838 9844 9854 9865
1793.9564 9872 9876 9875 9873 9873 9877 9885 9892 9896 9894 9885 9873 9861
1800.2239 9853 9853 9858 9868 9879 9889 9896 9900 9901 9901 9901 9901 9899
1806.4915 9897 9893 9890 9888 9888 9889 9888 9886 9883 9879 9878 9880 9886
1812.7589 9892 9898 9903 9907 9908 9907 9905 9901 9898 9898 9901 9907 9913
1819.0265 9917 9917 9911 9902 9892 9886 9886 9891 9898 9903 9902 9895 9885
1825.2939 9879 9881 9890 9902 9912 9918 9920 9918 9913 9906 9900 9894 9889
1831.5615 9885 9883 9884 9889 9898 9908 9916 9921 9922 9920 9916 9911 9907
1837.8290 9905 9905 9907 9911 9916 9921 9924 9922 9916 9905 9890 9873 9856
1844.0966 9842 9836 9836 9841 9846 9850 9853 9855 9858 9865 9875 9887 9900
1850.3640 9910 9916 9916 9914 9910 9907 9907 9907 9908 9907 9904 9900 9895
1856.6316 9891 9889 9890 9893 9896 9896 9893 9888 9882 9878 9878 9880 9884
1862.8990 9888 9890 9890 9888 9884 9880 9874 9868 9863 9859 9858 9861 9866
1869.1666 9873 9880 9887 9894 9902 9909 9914 9915 9914 9910 9907 9905 9907
1875.4341 9910 9913 9913 9911 9908 9904 9903 9904 9907 9911 9916 9921 9924
1881.7017 9925 9923 9920 9916 9911 9908 9904 9902 9900 9899 9900 9901 9902
1887.9691 9901 9897 9891 9885 9881 9880 9882 9884 9886 9887 9887 9889 9893
1894.2367 9900 9906 9908 9907 9903 9900 9899 9901 9904 9906 9906 9906 9905
1900.5042 9905 9905 9905 9904 9901 9898 9894 9889 9884 9878 9873 9872 9874
1906.7717 9881 9893 9909 9926 9939 9945 9942 9929 9913 9898 9888 9884 9889
1913.0392 9899 9914 9931 9945 9952 9948 9934 9911 9886 9866 9861 9871 9892
1919.3068 9916 9934 9943 9940 9924 9900 9874 9857 9857 9873 9897 9921 9938
1925.5742 9947 9947 9944 9938 9931 9922 9911 9902 9898 9903 9916 9934 9951
1931.8418 9961 9963 9959 9951 9944 9938 9931 9920 9906 9888 9873 9868 9878
1938.1093 9906 9944 9978 9996 9988 9958 9913 9866 9830 9812 9809 9815 9827
1944.3768 9843 9863 9888 9913 9930 9934 9925 9907 9888 9873 9869 9873 9885
1950.6443 9899 9912 9919 9919 9916 9913 9917 9928 9943 9958 9968 9971 9972
1956.9119 9974 9979 9981 9977 9964 9947 9932 9924 9921 9920 9921 9924 9932
1963.1793 9944 9953 9949 9932 9908 9890 9891 9912 9939 9958 9962 9958 9959
1969.4469 9970 9985 9988 9965 9913 9849 9798 9778 9799 9851 9915 9965 9983
1975.7144 9961 9907 9842 9795 9787 9823 9889 9958 10006 10021 10005 9969 9929
1981.9819 9894 9872 9864 9870 9889 9921 9964 10013 10061 10099 10116 10106
1987.7673 10070 10019 9972 9942 9938 9956 9987 10018 10036 10031 10001 9955
1993.5527 9902 9852 9811 9787 9781 9795 9828 9876 9930 9980 10015 10026 10014
1999.8202 9987 9955 9930 9918 9920 9933 9955 9979 10002 10019 10025 10022
2005.6056 10013 10005 10002 10004 10003 9994 9975 9951 9931 9922 9927 9942
2011.3910 9962 9978 9989 9992 9991 9987 9978 9964 9945 9926 9914 9917 9936
2017.6586 9968 10001 10025 10031 10020 9996 9965 9937 9917 9912 9925 9954 9992
2023.9260 10026 10042 10035 10011 9984 9972 9988 10027 10076 10114 10131 10127
2029.7114 10110 10093 10080 10066 10047 10020 9992 9973 9972 9990 10023 10066
2035.4968 10113 10161 10200 10221 10217 10192 10156 10123 10105 10100 10103
2040.8002 10105 10101 10090 10076 10063 10056 10057 10067 10083 10096 10099
2046.1034 10084 10056 10025 10003 9996 10002 10012 10015 10007 9991 9974 9961
2051.8889 9955 9957 9965 9975 9983 9985 9978 9965 9952 9944 9945 9952 9960
2058.1563 9964 9960 9952 9944 9940 9943 9949 9955 9959 9959 9954 9944 9931
2064.4238 9917 9907 9905 9912 9925 9940 9952 9960 9965 9969 9975 9981 9987
2070.6914 9989 9982 9967 9947 9925 9906 9893 9887 9887 9892 9900 9909 9918
2076.9590 9926 9933 9942 9955 9974 9999 10027 10049 10060 10053 10029 9992
2082.7444 9947 9905 9873 9857 9857 9871 9892 9916 9937 9952 9961 9963 9960
2089.0117 9956 9952 9948 9944 9936 9924 9910 9900 9897 9903 9913 9921 9926
2095.2793 9926 9926 9928 9934 9940 9944 9943 9940 9936 9934 9936 9939 9940
2101.5469 9939 9937 9934 9932 9932 9934 9936 9938 9938 9936 9932 9928 9924
2107.8145 9924 9928 9937 9948 9957 9958 9952 9939 9923 9911 9907 9912 9924
2114.0818 9939 9953 9965 9973 9977 9978 9977 9975 9976 9980 9989 9998 10001
2120.3494 9995 9979 9956 9933 9917 9910 9911 9918 9929 9940 9950 9956 9956
2126.6169 9953 9949 9949 9957 9970 9983 9989 9985 9970 9951 9931 9917 9909
2132.8845 9909 9913 9919 9924 9930 9936 9947 9962 9981 9998 10005 9999 9980
2139.1519 9954 9929 9913 9908 9912 9923 9934 9943 9947 9949 9950 9954 9966
2145.4194 9984 10006 10024 10026 10010 9983 9962 9967 10011 10088 10173 10238
2151.2048 10256 10224 10156 10077 10009 9964 9942 9935 9937 9945 9961 9985
2156.9902 10016 10046 10069 10079 10079 10073 10065 10058 10048 10034 10022
2162.2935 10019 10033 10065 10106 10141 10153 10140 10109 10077 10058 10055
2167.5969 10063 10068 10062 10043 10018 9998 9994 10009 10038 10073 10101
2172.9001 10114 10106 10079 10042 10005 9977 9962 9963 9980 10010 10048 10086
2178.6855 10115 10130 10131 10120 10105 10091 10080 10071 10061 10047 10028
2183.9888 10004 9981 9966 9963 9974 9992 10006 10011 10006 10000 10007 10029
2189.7742 10061 10086 10092 10072 10032 9989 9954 9937 9935 9943 9953 9962
2195.5596 9965 9963 9959 9955 9954 9956 9958 9957 9953 9946 9942 9944 9953
2201.8271 9967 9983 9996 10005 10009 10007 9999 9988 9980 9983 9999 10023
2207.6125 10046 10057 10051 10031 10007 9986 9975 9972 9974 9976 9976 9974
2213.3979 9970 9966 9963 9962 9964 9970 9981 9993 10002 10007 10007 10004
2219.1833 10003 10004 10009 10011 10010 10003 9995 9990 9992 9999 10006 10006
2224.9688 10000 9989 9983 9988 10004 10028 10052 10068 10071 10064 10052 10039
2230.7542 10031 10026 10024 10021 10017 10013 10011 10012 10018 10023 10023
2236.0574 10013 9996 9975 9960 9956 9966 9984 10001 10009 10007 9998 9990 9987
2242.3250 9992 10000 10007 10011 10013 10012 10011 10010 10008 10004 10000
2247.6282 9998 9999 10004 10007 10008 10002 9993 9983 9980 9985 9999 10018
2253.4136 10035 10044 10044 10037 10028 10021 10015 10010 10001 9988 9976 9967
2259.1990 9968 9979 9999 10022 10043 10055 10056 10044 10025 10002 9984 9974
2264.9844 9974 9983 9996 10010 10021 10029 10033 10033 10029 10021 10011 10001
2270.7698 9994 9991 9989 9989 9988 9986 9985 9986 9988 9991 9992 9992 9993
2277.0374 9997 10004 10011 10015 10014 10007 9996 9987 9981 9979 9981 9986
2282.8228 9992 10000 10008 10014 10017 10015 10010 10006 10005 10007 10010
2288.1260 10011 10009 10005 10000 9997 9996 9996 9996 9995 9994 9994 9994 9995
2294.3936 9995 9994 9991 9988 9984 9981 9979 9978 9980 9984 9991 9997 10002
2300.6611 10003 10000 9993 9983 9970 9958 9948 9942 9941 9944 9948 9952 9955
2306.9285 9957 9959 9962 9964 9962 9956 9946 9935 9927 9925 9929 9937 9944
2313.1960 9948 9948 9945 9942 9940 9938 9937 9933 9927 9919 9914 9912 9913
2319.4636 9916 9919 9921 9920 9919 9918 9916 9914 9911 9907 9904 9903 9905
2325.7312 9908 9911 9912 9911 9910 9910 9912 9913 9912 9905 9893 9878 9866
2331.9985 9859 9859 9864 9870 9874 9874 9873 9872 9872 9871 9870 9868 9869
2338.2661 9872 9878 9885 9890 9891 9887 9882 9878 9877 9879 9881 9883 9883
2344.5337 9881 9879 9879 9881 9884 9888 9892 9895 9897 9898 9898 9894 9887
2350.8013 9877 9866 9859 9857 9861 9870 9881 9893 9906 9918 9930 9937 9938
2357.0686 9934 9927 9920 9913 9904 9893 9881 9871 9868 9870 9876 9882 9885
2363.3362 9887 9889 9890 9890 9887 9881 9873 9866 9861 9856 9850 9844 9840
2369.6038 9842 9851 9865 9882 9895 9901 9899 9892 9884 9880 9881 9888 9897
2375.8713 9903 9904 9900 9893 9886 9883 9885 9890 9897 9905 9911 9915 9916
2382.1387 9916 9915 9914 9916 9920 9928 9937 9945 9951 9953 9951 9945 9938
2388.4063 9930 9923 9918 9916 9915 9916 9918 9920 9920 9919 9917 9914 9912
2394.6738 9911 9910 9908 9906 9904 9902 9902 9903 9906 9909 9911 9911 9909
2400.9414 9908 9907 9907 9908 9908 9906 9903 9899 9895 9893 9894 9896 9900
2407.2087 9903 9904 9901 9896 9889 9884 9880 9879 9879 9880 9880 9878 9876
2413.4763 9875 9873 9872 9872 9871 9870 9870 9871 9872 9874 9875 9874 9872
2419.7439 9870 9869 9870 9871 9872 9872 9872 9872 9872 9873 9872 9871 9869
2426.0115 9867 9865 9864 9862 9858 9855 9852 9852 9855 9861 9868 9873 9875
2432.2788 9874 9871 9868 9866 9865 9865 9863 9860 9854 9849 9846 9845 9847
2438.5464 9851 9853 9854 9853 9851 9849 9850 9854 9860 9865 9869 9868 9862
2444.8140 9855 9847 9842 9841 9840 9839 9836 9833 9831 9833 9838 9845 9850
2451.0815 9851 9848 9843 9840 9840 9844 9849 9854 9857 9857 9854 9848 9842
2457.3489 9838 9838 9841 9846 9852 9854 9853 9849 9844 9840 9836 9835 9834
2463.6165 9835 9835 9836 9837 9837 9837 9836 9834 9833 9833 9832 9832 9831
2469.8840 9829 9826 9823 9818 9814 9811 9811 9812 9815 9818 9820 9820 9817
2476.1516 9814 9811 9808 9808 9808 9810 9811 9811 9811 9810 9810 9810 9810
2482.4189 9809 9807 9803 9801 9800 9801 9803 9805 9807 9809 9809 9808 9807
2488.6865 9804 9800 9796 9792 9789 9788 9788 9789 9790 9789 9788 9787 9786
2494.9541 9788 9791 9795 9799 9801 9801 9799 9795 9792 9789 9787 9784 9780
2501.2217 9774 9767 9760 9756 9755 9758 9762 9767 9772 9776 9780 9783 9785
2507.4890 9785 9782 9778 9774 9772 9771 9772 9776 9780 9784 9786 9786 9784
2513.7566 9781 9778 9777 9778 9779 9779 9777 9773 9768 9763 9761 9759 9758
2520.0242 9757 9756 9757 9761 9766 9771 9775 9777 9778 9778 9778 9777 9774
2526.2917 9768 9760 9753 9748 9745 9743 9741 9736 9731 9727 9727 9729 9733
2532.5591 9736 9739 9742 9746 9751 9755 9755 9751 9743 9734 9726 9721 9719
2538.8267 9719 9719 9719 9720 9723 9727 9730 9730 9727 9721 9714 9709 9708
2545.0942 9709 9713 9716 9719 9720 9719 9717 9715 9713 9712 9712 9712 9712
2551.3618 9710 9708 9705 9704 9703 9703 9702 9699 9696 9693 9692 9694 9697
2557.6292 9701 9703 9703 9701 9698 9695 9693 9690 9688 9685 9684 9683 9684
2563.8967 9685 9684 9681 9677 9673 9670 9669 9670 9670 9670 9669 9666 9664
2570.1643 9663 9662 9663 9664 9666 9669 9671 9672 9672 9669 9666 9662 9660
2576.4319 9660 9661 9661 9660 9658 9655 9654 9653 9654 9655 9656 9657 9658
2582.6995 9659 9658 9658 9658 9660 9663 9668 9674 9678 9679 9679 9676 9674
2588.9668 9671 9669 9667 9665 9663 9661 9660 9659 9659 9658 9659 9659 9659
2595.2344 9659 9659 9659 9658 9658 9658 9658 9658 9658 9658 9660 9661 9663
2601.5020 9662 9661 9659 9657 9657 9658 9661 9663 9664 9662 9658 9653 9649
2607.7695 9646 9645 9645 9646 9647 9649 9649 9649 9647 9645 9643 9641 9641
2614.0369 9641 9640 9638 9635 9632 9630 9630 9632 9635 9638 9641 9643 9644
2620.3044 9645 9645 9644 9641 9638 9636 9633 9632 9630 9627 9625 9623 9623
2626.5720 9626 9632 9638 9643 9645 9642 9636 9629 9623 9620 9620 9620 9620
2632.8396 9618 9614 9611 9609 9608 9608 9608 9608 9607 9606 9605 9607 9609
2639.1069 9612 9614 9615 9614 9612 9610 9610 9609 9609 9607 9605 9603 9604
2645.3745 9608 9614 9621 9624 9624 9620 9615 9609 9605 9602 9602 9602 9602
2651.6421 9601 9600 9598 9596 9594 9591 9589 9587 9586 9586 9587 9589 9591
2657.9097 9594 9595 9596 9595 9594 9593 9591 9588 9585 9581 9578 9576 9575
2664.1770 9574 9573 9573 9573 9573 9572 9571 9571 9571 9571 9572 9573 9572
2670.4446 9571 9570 9568 9567 9567 9566 9566 9564 9562 9561 9559 9559 9559
2676.7122 9561 9561 9561 9560 9558 9556 9556 9556 9556 9556 9556 9555 9554
2682.9797 9553 9552 9552 9552 9552 9551 9551 9550 9549 9548 9545 9543 9541
2689.2471 9540 9540 9540 9539 9537 9536 9535 9535 9537 9538 9539 9541 9542
2695.5146 9542 9543 9542 9541 9540 9538 9538 9538 9540 9541 9542 9542 9541
2701.7822 9538 9535 9532 9530 9529 9529 9531 9532 9534 9535 9535 9533 9531
2708.0498 9528 9525 9522 9520 9520 9521 9524 9527 9531 9534 9537 9539 9540
2714.3171 9540 9539 9540 9542 9543 9544 9544 9544 9542 9541 9539 9538 9537
2720.5847 9536 9536 9536 9537 9538 9539 9538 9537 9536 9535 9535 9537 9540
2726.8523 9543 9546 9547 9546 9545 9543 9542 9541 9541 9542 9542 9541 9540
2733.1199 9540 9541 9543 9547 9549 9550 9549 9547 9545 9544 9545 9548 9551
2739.3872 9554 9554 9553 9550 9548 9545 9544 9544 9546 9549 9551 9553 9553
2745.6548 9552 9551 9551 9552 9554 9555 9555 9554 9552 9551 9552 9554 9558
2751.9224 9561 9563 9563 9562 9560 9557 9555 9553 9552 9552 9553 9554 9556
2758.1899 9558 9560 9562 9565 9569 9571 9572 9571 9568 9565 9562 9560 9559
2764.4573 9559 9558 9558 9559 9561 9564 9568 9570 9571 9570 9569 9569 9569
2770.7249 9570 9572 9574 9575 9577 9578 9579 9578 9578 9577 9577 9578 9580
2776.9924 9581 9582 9582 9581 9579 9576 9573 9572 9571 9572 9574 9576 9579
2783.2600 9582 9584 9585 9586 9587 9588 9590 9591 9592 9591 9588 9584 9579
2789.5273 9575 9574 9575 9578 9581 9584 9585 9584 9582 9579 9577 9576 9577
2795.7949 9579 9582 9585 9586 9587 9585 9584 9582 9581 9580 9579 9578 9577
2802.0625 9576 9577 9579 9582 9584 9585 9583 9580 9577 9576 9578 9581 9584
2808.3301 9587 9587 9587 9585 9583 9581 9580 9580 9581 9582 9583 9583 9582
2814.5974 9579 9575 9571 9568 9566 9566 9566 9567 9568 9569 9572 9575 9578
2820.8650 9580 9579 9577 9572 9568 9564 9563 9562 9562 9562 9561 9559 9557
2827.1326 9556 9556 9557 9560 9562 9563 9562 9560 9557 9555 9553 9553 9554
2833.4001 9554 9554 9554 9553 9553 9554 9555 9554 9553 9550 9546 9543 9542
2839.6675 9542 9544 9546 9547 9548 9547 9546 9544 9543 9542 9541 9539 9536
2845.9351 9532 9528 9524 9523 9525 9529 9534 9538 9540 9539 9536 9534 9532
2852.2026 9534 9538 9543 9547 9550 9550 9548 9544 9541 9538 9536 9535 9534
2858.4702 9532 9529 9527 9525 9524 9524 9525 9526 9527 9528 9528 9528 9530
2864.7375 9532 9534 9537 9539 9540 9541 9540 9539 9537 9534 9531 9528 9526
2871.0051 9525 9527 9528 9528 9527 9526 9524 9522 9522 9521 9521 9520 9519
2877.2727 9519 9520 9520 9519 9516 9511 9505 9500 9495 9491 9489 9487 9485
2883.5403 9483 9480 9476 9473 9470 9469 9468 9469 9470 9470 9468 9465 9461
2889.8076 9458 9456 9455 9457 9461 9465 9468 9469 9468 9465 9461 9457 9454
2896.0752 9452 9452 9452 9452 9452 9451 9451 9450 9450 9450 9450 9449 9446
2902.3428 9441 9434 9426 9419 9413 9410 9409 9411 9412 9414 9413 9410 9405
2908.6104 9400 9396 9394 9395 9398 9401 9403 9403 9402 9402 9402 9402 9402
2914.8777 9399 9394 9388 9383 9380 9379 9380 9381 9382 9383 9384 9385 9387
2921.1453 9389 9390 9391 9391 9390 9391 9392 9394 9398 9401 9403 9404 9404
2927.4128 9403 9403 9404 9407 9410 9414 9417 9419 9420 9419 9418 9416 9414
2933.6804 9414 9415 9417 9420 9423 9424 9425 9424 9423 9421 9418 9415 9410
2939.9478 9404 9399 9396 9394 9395 9396 9397 9397 9394 9391 9388 9385 9384
2946.2153 9384 9385 9385 9383 9381 9379 9378 9378 9379 9380 9380 9378 9374
2952.4829 9368 9362 9357 9353 9350 9347 9344 9340 9336 9333 9331 9332 9332
2958.7505 9332 9331 9328 9325 9324 9325 9327 9330 9330 9328 9323 9316 9309
2965.0178 9302 9296 9292 9287 9283 9278 9272 9267 9261 9254 9248 9241 9235
2971.2854 9228 9222 9217 9212 9210 9209 9209 9209 9208 9205 9198 9189 9181
2977.5530 9175 9172 9173 9175 9177 9179 9178 9177 9173 9169 9163 9155 9148
2983.8206 9141 9135 9131 9127 9124 9120 9114 9109 9104 9101 9101 9104 9109
2990.0879 9114 9120 9123 9124 9122 9120 9118 9119 9123 9131 9141 9151 9159
2996.3555 9163 9164 9162 9157 9150 9143 9135 9126 9117 9106 9095 9085 9077
3002.6230 9071 9069 9070 9072 9074 9076 9076 9076 9074 9072 9071 9070 9071
3008.8906 9072 9073 9074 9075 9078 9082 9088 9096 9102 9107 9109 9109 9106
3015.1580 9103 9101 9099 9099 9099 9100 9100 9100 9100 9100 9099 9098 9097
3021.4255 9096 9095 9093 9091 9089 9086 9085 9085 9088 9093 9099 9105 9108
3027.6931 9108 9106 9103 9102 9102 9104 9105 9105 9104 9103 9104 9109 9116
3033.9607 9122 9125 9123 9118 9112 9107 9104 9104 9104 9105 9104 9104 9103
3040.2280 9102 9101 9101 9100 9099 9098 9096 9094 9090 9087 9083 9080 9078
3046.4956 9077 9077 9076 9074 9071 9067 9065 9064 9064 9065 9065 9066 9066
3052.7632 9066 9068 9069 9069 9066 9063 9058 9055 9053 9053 9054 9054 9054
3059.0308 9054 9053 9053 9053 9053 9051 9047 9045 9044 9046 9052 9058 9063
3065.2981 9064 9062 9057 9051 9045 9040 9038 9037 9037 9037 9037 9035 9031
3071.5657 9024 9015 9008 9002 8999 8997 8996 8995 8993 8992 8993 8994 8996
3077.8333 8998 8998 8996 8994 8991 8988 8985 8984 8986 8989 8993 8995 8994
3084.1008 8990 8984 8980 8979 8980 8983 8985 8985 8984 8983 8983 8983 8982
3090.3682 8981 8978 8975 8972 8972 8972 8973 8973 8972 8969 8964 8960 8956
3096.6357 8953 8951 8951 8951 8952 8952 8950 8946 8940 8934 8929 8927 8929
3102.9033 8934 8938 8941 8942 8941 8939 8937 8933 8929 8924 8919 8915 8915
3109.1709 8916 8919 8921 8921 8920 8918 8915 8913 8911 8909 8908 8907 8906
3115.4382 8905 8904 8903 8902 8901 8900 8897 8894 8892 8890 8888 8887 8885
3121.7058 8881 8878 8874 8873 8872 8872 8871 8869 8866 8863 8863 8865 8869
3127.9734 8873 8876 8875 8872 8867 8861 8855 8850 8847 8844 8841 8838 8836
3134.2410 8835 8834 8835 8836 8837 8839 8840 8842 8844 8843 8842 8840 8838
3140.5083 8837 8838 8838 8838 8838 8838 8837 8835 8831 8825 8818 8811 8806
3146.7759 8804 8805 8808 8811 8814 8815 8815 8815 8815 8815 8815 8815 8814
3153.0435 8811 8807 8803 8799 8796 8795 8797 8801 8805 8809 8810 8808 8804
3159.3110 8799 8795 8793 8791 8790 8789 8789 8788 8788 8788 8788 8788 8788
3165.5784 8788 8788 8788 8787 8786 8785 8785 8785 8785 8785 8784 8781 8776
3171.8459 8770 8764 8758 8755 8754 8754 8756 8757 8757 8757 8757 8759 8761
3178.1135 8762 8760 8756 8749 8743 8738 8738 8741 8746 8750 8751 8747 8739
3184.3811 8730 8723 8720 8722 8728 8735 8742 8745 8745 8743 8739 8734 8729
3190.6484 8725 8723 8722 8723 8726 8730 8734 8737 8738 8736 8733 8729 8725
3196.9160 8722 8720 8718 8716 8715 8715 8716 8717 8716 8714 8709 8705 8701
3203.1836 8699 8699 8701 8703 8707 8710 8713 8714 8713 8712 8711 8712 8713
3209.4512 8715 8716 8716 8714 8710 8704 8698 8693 8691 8691 8692 8694 8696
3215.7185 8696 8697 8698 8698 8698 8696 8693 8688 8684 8681 8679 8678 8677
3221.9861 8678 8678 8679 8680 8683 8686 8689 8690 8688 8684 8678 8674 8673
3228.2537 8676 8680 8684 8686 8685 8684 8683 8682 8682 8681 8680 8678 8678
3234.5212 8679 8682 8685 8688 8689 8690 8689 8689 8688 8689 8691 8693 8695
3240.7886 8697 8698 8697 8694 8688 8681 8674 8668 8665 8665 8667 8670 8673
3247.0562 8674 8674 8674 8674 8674 8675 8676 8676 8678 8679 8681 8683 8683
3253.3237 8683 8684 8684 8686 8688 8688 8687 8684 8680 8676 8675 8675 8678
3259.5913 8682 8687 8692 8696 8697 8696 8692 8688 8686 8687 8690 8693 8695
3265.8586 8694 8692 8690 8690 8690 8692 8693 8694 8695 8697 8700 8703 8705
3272.1262 8704 8702 8699 8698 8698 8701 8705 8710 8715 8719 8722 8722 8720
3278.3938 8718 8717 8718 8722 8727 8732 8736 8737 8737 8734 8731 8727 8724
3284.6614 8722 8723 8725 8729 8732 8734 8733 8731 8729 8729 8730 8734 8738
3290.9287 8743 8745 8746 8745 8743 8740 8738 8737 8736 8736 8737 8738 8739
3297.1963 8741 8742 8742 8742 8741 8741 8743 8745 8747 8749 8749 8748 8747
3303.4639 8747 8747 8748 8748 8748 8746 8744 8741 8739 8737 8736 8738 8741
3309.7314 8745 8749 8752 8754 8754 8754 8754 8754 8753 8751 8749 8747 8745
3315.9988 8745 8746 8748 8749 8751 8752 8752 8752 8751 8750 8750 8750 8751
3322.2664 8751 8750 8748 8747 8746 8747 8749 8751 8754 8756 8756 8755 8752
3328.5339 8748 8744 8740 8738 8738 8740 8741 8740 8738 8733 8727 8722 8720
3334.8015 8721 8724 8727 8730 8730 8728 8724 8720 8716 8712 8711 8710 8709
3341.0688 8709 8707 8704 8701 8699 8697 8697 8699 8701 8703 8705 8706 8707
3347.3364 8706 8705 8703 8700 8698 8696 8695 8695 8696 8698 8700 8703 8705
3353.6040 8707 8707 8707 8705 8703 8700 8696 8693 8690 8688 8688 8690 8694
3359.8716 8698 8702 8704 8705 8706 8705 8704 8703 8701 8699 8698 8699 8700
3366.1389 8701 8700 8698 8695 8692 8690 8691 8694 8698 8701 8702 8701 8699
3372.4065 8697 8696 8697 8700 8705 8709 8713 8714 8712 8707 8701 8694 8689
3378.6741 8687 8689 8693 8698 8703 8707 8710 8713 8715 8716 8714 8710 8704
3384.9417 8699 8697 8698 8701 8706 8709 8710 8710 8708 8705 8703 8700 8698
3391.2090 8695 8692 8689 8687 8687 8687 8687 8687 8687 8686 8685 8686 8690
3397.4766 8696 8702 8706 8707 8705 8700 8695 8690 8687 8685 8685 8684 8683
3403.7441 8683 8684 8687 8692 8697 8700 8702 8702 8701 8699 8698 8697 8698
3410.0117 8700 8704 8706 8707 8705 8701 8696 8693 8691 8692 8695 8700 8707
3416.2791 8713 8719 8721 8719 8713 8705 8699 8697 8699 8705 8713 8720 8725
3422.5466 8728 8731 8732 8734 8734 8734 8734 8733 8733 8735 8738 8741 8743
3428.8142 8743 8742 8742 8742 8743 8746 8751 8757 8764 8772 8778 8781 8781
3435.0818 8779 8775 8772 8771 8773 8776 8779 8782 8784 8786 8789 8792 8794
3441.3491 8795 8796 8796 8799 8804 8810 8816 8820 8821 8820 8818 8817 8818
3447.6167 8820 8824 8829 8833 8836 8839 8842 8847 8852 8858 8865 8872 8878
3453.8843 8882 8884 8886 8887 8888 8890 8893 8896 8899 8903 8906 8908 8911
3460.1519 8912 8911 8909 8906 8904 8905 8909 8916 8923 8929 8933 8936 8939
3466.4192 8943 8948 8954 8960 8964 8967 8968 8968 8969 8971 8973 8974 8975
3472.6868 8973 8970 8967 8967 8969 8974 8979 8982 8983 8984 8985 8989 8995
3478.9543 9003 9009 9011 9010 9006 8999 8992 8987 8985 8987 8990 8994 8998
3485.2219 9001 9003 9004 9004 9003 9002 9000 8999 8999 9002 9006 9011 9016
3491.4893 9020 9023 9025 9027 9028 9030 9031 9032 9032 9031 9029 9029 9032
3497.7568 9038 9047 9056 9065 9072 9075 9075 9073 9071 9069 9069 9071 9073
3504.0244 9075 9076 9077 9080 9084 9090 9096 9099 9100 9097 9094 9092 9094
3510.2920 9099 9104 9108 9110 9111 9110 9111 9114 9119 9125 9129 9131 9130
3516.5593 9127 9124 9124 9126 9132 9140 9149 9157 9164 9168 9169 9166 9161
3522.8269 9156 9153 9153 9158 9165 9173 9178 9180 9179 9176 9174 9175 9178
3529.0945 9182 9187 9192 9196 9201 9207 9212 9217 9220 9220 9219 9216 9215
3535.3621 9214 9216 9217 9219 9219 9219 9221 9224 9229 9235 9242 9247 9253
3541.6294 9257 9260 9260 9256 9250 9243 9238 9238 9242 9248 9255 9260 9264
3547.8970 9270 9276 9284 9292 9297 9298 9295 9289 9283 9280 9281 9285 9291
3554.1646 9298 9304 9311 9317 9323 9328 9330 9328 9324 9318 9314 9313 9316
3560.4321 9321 9328 9334 9339 9341 9339 9334 9326 9315 9304 9292 9283 9278
3566.6997 9278 9284 9294 9306 9319 9330 9339 9348 9356 9365 9373 9381 9387
3572.9670 9391 9393 9394 9394 9394 9394 9394 9394 9396 9398 9401 9402 9400
3579.2346 9396 9391 9387 9384 9384 9386 9390 9395 9402 9410 9418 9423 9423
3585.5022 9416 9399 9375 9351 9336 9333 9343 9360 9379 9395 9406 9413 9415
3591.7698 9414 9413 9415 9421 9427 9433 9434 9431 9426 9424 9425 9427 9429
3598.0371 9428 9425 9422 9421 9424 9430 9438 9444 9449 9452 9458 9466 9476
3604.3047 9486 9492 9492 9486 9475 9463 9452 9443 9438 9437 9443 9453 9464
3610.5723 9474 9479 9479 9476 9472 9472 9476 9482 9488 9493 9497 9502 9506
3616.8398 9512 9515 9513 9505 9493 9485 9486 9498 9517 9537 9553 9562 9564
3623.1072 9560 9554 9547 9541 9537 9537 9538 9542 9544 9543 9537 9527 9521
3629.3748 9525 9536 9548 9559 9568 9575 9582 9587 9592 9595 9599 9604 9610
3635.6423 9616 9621 9623 9621 9616 9612 9612 9618 9627 9638 9646 9652 9653
3641.9099 9653 9653 9656 9660 9663 9664 9662 9655 9644 9632 9623 9621 9624
3648.1772 9624 9615 9595 9572 9563 9576 9606 9640 9669 9690 9703 9710 9712
3654.4448 9711 9705 9696 9689 9687 9692 9702 9712 9721 9728 9731 9732 9732
3660.7124 9732 9732 9734 9735 9736 9734 9730 9725 9721 9720 9722 9727 9734
3666.9800 9739 9741 9737 9727 9711 9693 9680 9677 9683 9694 9704 9713 9718
3673.2473 9718 9710 9691 9660 9633 9631 9649 9672 9693 9711 9723 9731 9735
3679.5149 9735 9733 9730 9728 9728 9730 9736 9744 9753 9760 9763 9764 9764
3685.7825 9763 9761 9757 9746 9730 9712 9699 9695 9698 9704 9712 9721 9730
3692.0500 9739 9746 9751 9755 9758 9759 9759 9757 9755 9753 9753 9754 9756
3698.3174 9760 9763 9764 9761 9753 9739 9724 9715 9716 9727 9740 9751 9760
3704.5850 9765 9768 9771 9773 9775 9774 9769 9760 9748 9735 9726 9719 9713
3710.8525 9706 9698 9694 9700 9713 9729 9744 9754 9761 9763 9762 9759 9754
3717.1201 9749 9742 9737 9736 9739 9746 9752 9754 9749 9738 9723 9711 9705
3723.3875 9705 9705 9704 9698 9691 9685 9687 9695 9707 9718 9727 9731 9730
3729.6550 9726 9717 9706 9697 9694 9700 9710 9718 9716 9702 9677 9652 9642
3735.9226 9651 9671 9691 9705 9713 9716 9717 9716 9717 9720 9726 9736 9748
3742.1902 9759 9766 9762 9740 9701 9673 9671 9685 9701 9714 9720 9719 9710
3748.4575 9695 9680 9676 9682 9690 9693 9686 9675 9668 9674 9687 9702 9715
3754.7251 9723 9725 9724 9723 9724 9727 9729 9729 9725 9718 9714 9715 9723
3760.9927 9732 9742 9750 9756 9760 9760 9758 9752 9744 9738 9735 9737 9740
3767.2603 9742 9739 9731 9719 9707 9703 9708 9719 9731 9741 9747 9751 9751
3773.5276 9749 9747 9744 9744 9745 9748 9750 9750 9747 9741 9735 9729 9726
3779.7952 9727 9731 9737 9745 9754 9761 9765 9762 9753 9740 9727 9719 9717
3786.0627 9720 9725 9730 9735 9739 9743 9748 9753 9756 9757 9756 9754 9752
3792.3303 9752 9755 9762 9768 9770 9765 9751 9731 9712 9701 9701 9707 9714
3798.5977 9721 9724 9724 9718 9705 9686 9672 9671 9683 9700 9717 9730 9739
3804.8652 9744 9743 9737 9727 9716 9710 9710 9714 9719 9724 9727 9728 9729
3811.1328 9730 9732 9736 9739 9741 9739 9733 9724 9712 9703 9703 9711 9723
3817.4004 9734 9741 9744 9740 9729 9710 9688 9675 9679 9692 9705 9714 9720
3823.6677 9723 9725 9726 9726 9725 9723 9722 9725 9731 9737 9741 9741 9736
3829.9353 9725 9712 9700 9696 9701 9709 9714 9713 9705 9693 9683 9680 9684
3836.2029 9691 9694 9690 9679 9667 9661 9662 9669 9679 9690 9698 9702 9702
3842.4705 9698 9693 9691 9694 9701 9710 9718 9725 9731 9736 9740 9742 9743
3848.7378 9742 9741 9740 9737 9729 9714 9690 9658 9626 9611 9623 9650 9672
3855.0054 9685 9691 9691 9691 9691 9695 9704 9714 9725 9733 9737 9736 9731
3861.2729 9727 9724 9725 9725 9722 9713 9698 9686 9685 9696 9714 9731 9744
3867.5405 9751 9747 9733 9709 9686 9679 9688 9702 9714 9719 9718 9711 9701
3873.8079 9696 9699 9709 9721 9729 9733 9734 9731 9726 9718 9707 9691 9676
3880.0754 9669 9676 9692 9710 9725 9734 9736 9732 9723 9710 9697 9688 9687
3886.3430 9694 9704 9715 9724 9731 9734 9733 9727 9716 9704 9695 9694 9698
3892.6106 9705 9712 9717 9721 9726 9731 9736 9740 9740 9736 9727 9712 9696
3898.8779 9682 9675 9673 9675 9678 9681 9684 9687 9688 9688 9687 9685 9687
3905.1455 9692 9699 9708 9715 9720 9724 9727 9730 9733 9735 9736 9736 9736
3911.4131 9735 9735 9735 9734 9732 9729 9725 9719 9711 9702 9693 9690 9692
3917.6807 9698 9705 9711 9715 9716 9718 9721 9726 9733 9738 9739 9736 9729
3923.9480 9720 9712 9707 9706 9706 9707 9708 9709 9710 9713 9715 9717 9717
3930.2156 9714 9708 9700 9694 9690 9691 9697 9706 9717 9728 9736 9743 9745
3936.4832 9743 9739 9732 9726 9722 9720 9721 9724 9727 9728 9726 9721 9715
3942.7507 9709 9707 9709 9715 9721 9726 9726 9722 9715 9707 9701 9698 9698
3949.0181 9701 9705 9711 9719 9726 9730 9729 9726 9720 9715 9711 9709 9708
3955.2856 9708 9711 9718 9728 9739 9748 9752 9750 9744 9737 9731 9727 9724
3961.5532 9723 9722 9723 9724 9726 9728 9729 9727 9725 9722 9718 9716 9716
3967.8208 9719 9724 9730 9735 9736 9734 9731 9727 9727 9728 9731 9732 9729
3974.0881 9723 9716 9711 9708 9708 9708 9709 9709 9708 9708 9710 9714 9721
3980.3557 9728 9735 9738 9738 9734 9729 9724 9720 9718 9717 9716 9715 9713
3986.6233 9713 9714 9717 9722 9726 9728 9728 9726 9724 9722 9721 9722 9723
3992.8909 9724 9724 9722 9719 9717 9716 9718 9722 9726 9729 9729 9727 9724
3999.1582 9722 9723 9725
##END= 
