##TITLE= STDACIDOASCORBICO
##JCAMP-DX= 4.24
##DATA TYPE= INFRARED SPECTRUM
##ORIGIN= JASCO
##OWNER= 
##DATE= 22/05/03
##TIME= 14:36:09
##SPECTROMETER/DATA SYSTEM= 
##RESOLUTION= 
##DELTAX=   0.48211674
##XUNITS= 1/CM
##YUNITS= TRANSMITTANCE
##XFACTOR= 1.00000
##YFACTOR= 0.0001
##FIRSTX=   599.7532
##LASTX=  4000.1226
##NPOINTS=     7054
##FIRSTY=      0.73507
##MAXY=      1.05684
##MINY=      0.36731
##XYDATA= (X++(Y..Y))
599.7532 7351 7395 7426 7443 7445 7436 7421 7408 7404 7413 7430 7445 7446 7427
606.5029 7391 7344 7299 7263 7239 7228 7226 7231 7240 7248 7254 7252 7241 7220
613.2525 7192 7160 7127 7095 7065 7037 7014 6998 6991 6990 6989 6977 6949 6906
620.0021 6852 6796 6743 6696 6650 6601 6545 6482 6414 6342 6264 6178 6080 5975
626.7518 5877 5802 5770 5789 5860 5970 6102 6240 6377 6511 6646 6781 6908 7015
633.5014 7093 7134 7145 7136 7122 7115 7118 7130 7145 7159 7167 7167 7153 7125
640.2510 7084 7034 6988 6957 6948 6961 6985 7005 7006 6982 6939 6892 6855 6837
647.0007 6837 6848 6862 6872 6876 6877 6876 6871 6858 6834 6795 6743 6685 6631
653.7503 6589 6562 6546 6533 6519 6504 6495 6497 6510 6523 6524 6503 6463 6417
660.4999 6379 6355 6344 6339 6333 6323 6313 6307 6306 6309 6312 6313 6308 6292
667.2496 6258 6207 6163 6162 6181 6189 6183 6167 6152 6145 6152 6171 6195 6214
673.9992 6219 6210 6191 6167 6145 6127 6114 6108 6103 6097 6087 6069 6044 6014
680.7488 5980 5943 5905 5871 5847 5837 5842 5855 5866 5868 5860 5848 5840 5841
687.4985 5851 5864 5878 5890 5904 5925 5955 5992 6033 6073 6111 6146 6179 6214
694.2481 6252 6292 6331 6365 6393 6419 6448 6486 6535 6585 6625 6641 6632 6607
700.9977 6585 6585 6616 6670 6731 6776 6793 6779 6746 6706 6670 6641 6616 6589
707.7474 6558 6525 6495 6472 6459 6454 6448 6434 6405 6361 6309 6262 6232 6222
714.4970 6231 6248 6263 6271 6272 6271 6273 6276 6277 6271 6254 6232 6213 6209
721.2466 6226 6265 6320 6384 6451 6516 6578 6635 6688 6734 6770 6794 6807 6812
727.9963 6820 6837 6864 6897 6926 6940 6937 6918 6894 6874 6865 6868 6879 6892
734.7459 6902 6908 6910 6910 6909 6905 6899 6899 6915 6958 7029 7112 7176 7185
741.4955 7122 7002 6866 6760 6713 6727 6777 6827 6844 6815 6744 6646 6536 6427
748.2452 6332 6259 6208 6167 6118 6044 5945 5836 5739 5674 5646 5650 5676 5718
754.9948 5772 5840 5921 6016 6126 6252 6392 6540 6682 6804 6897 6966 7021 7076
761.7444 7143 7227 7327 7435 7539 7629 7697 7738 7753 7752 7748 7757 7788 7838
768.4941 7893 7938 7959 7958 7946 7940 7952 7984 8029 8073 8106 8123 8126 8121
775.2437 8113 8105 8099 8093 8085 8073 8055 8028 7996 7962 7934 7913 7898 7884
781.9933 7864 7835 7801 7767 7740 7724 7719 7723 7732 7742 7749 7751 7749 7746
788.7430 7747 7757 7775 7799 7822 7837 7844 7848 7856 7874 7903 7942 7985 8023
795.4926 8054 8074 8084 8087 8087 8089 8095 8106 8122 8138 8154 8166 8175 8182
802.2422 8190 8199 8212 8227 8243 8259 8270 8276 8276 8269 8257 8243 8229 8216
808.9919 8203 8191 8177 8159 8134 8099 8055 8003 7942 7873 7792 7695 7578 7437
815.7415 7273 7087 6886 6675 6467 6272 6110 5995 5943 5962 6053 6210 6419 6664
822.4911 6928 7194 7449 7684 7894 8077 8233 8365 8477 8570 8648 8711 8763 8810
829.2408 8856 8901 8942 8975 8994 8995 8983 8964 8945 8932 8927 8929 8935 8941
835.9904 8943 8941 8936 8930 8928 8935 8951 8977 9010 9044 9076 9098 9107 9102
842.7401 9084 9055 9022 8986 8951 8916 8882 8848 8815 8783 8753 8725 8698 8675
849.4897 8655 8640 8628 8616 8599 8575 8542 8502 8459 8418 8381 8347 8313 8277
856.2393 8237 8195 8155 8121 8094 8073 8055 8037 8016 7994 7972 7951 7931 7910
862.9890 7885 7851 7807 7750 7681 7603 7518 7429 7341 7258 7182 7121 7079 7061
869.7386 7073 7116 7189 7290 7412 7550 7701 7860 8021 8179 8328 8460 8573 8666
876.4882 8740 8799 8848 8889 8924 8955 8981 9001 9017 9029 9038 9046 9050 9049
883.2379 9043 9033 9021 9011 9004 9002 9003 9005 9010 9016 9024 9033 9042 9047
889.9875 9048 9046 9043 9040 9039 9038 9036 9032 9022 9009 8993 8977 8962 8951
896.7371 8943 8940 8941 8943 8945 8947 8948 8947 8943 8937 8927 8913 8896 8879
903.4868 8863 8851 8842 8836 8832 8828 8823 8819 8815 8812 8809 8808 8808 8809
910.2364 8811 8815 8820 8827 8835 8841 8844 8842 8834 8824 8813 8804 8795 8784
916.9860 8769 8750 8728 8706 8688 8673 8662 8651 8640 8629 8619 8611 8605 8599
923.7357 8594 8588 8580 8572 8562 8551 8540 8527 8513 8496 8478 8459 8442 8427
930.4853 8416 8406 8394 8376 8353 8327 8301 8278 8258 8238 8215 8188 8157 8128
937.2349 8102 8083 8070 8062 8056 8052 8048 8044 8040 8034 8026 8014 8001 7988
943.9846 7977 7970 7965 7961 7955 7946 7937 7928 7922 7917 7913 7907 7897 7883
950.7342 7862 7837 7807 7773 7738 7703 7670 7640 7614 7592 7573 7555 7537 7518
957.4838 7500 7483 7466 7450 7436 7422 7410 7399 7389 7380 7368 7355 7339 7321
964.2335 7302 7281 7260 7241 7225 7213 7203 7193 7179 7158 7130 7097 7065 7035
970.9831 7009 6987 6964 6937 6906 6868 6827 6783 6738 6694 6650 6605 6560 6513
977.7327 6467 6420 6374 6327 6280 6230 6180 6128 6075 6019 5959 5892 5819 5742
984.4824 5666 5595 5531 5475 5425 5381 5348 5333 5347 5398 5493 5632 5814 6031
991.2320 6275 6533 6793 7040 7264 7455 7609 7727 7812 7870 7906 7926 7931 7923
997.9816 7900 7865 7817 7760 7696 7628 7556 7481 7403 7324 7246 7168 7089 7008
1004.7313 6918 6818 6703 6575 6436 6294 6156 6031 5920 5825 5742 5666 5591
1010.9988 5515 5435 5351 5263 5171 5077 4980 4881 4779 4674 4568 4462 4359
1017.2663 4262 4172 4089 4011 3939 3872 3811 3759 3717 3687 3673 3679 3709
1023.5338 3767 3851 3962 4094 4242 4403 4573 4751 4938 5136 5346 5569 5802
1029.8014 6040 6280 6514 6738 6947 7136 7300 7438 7548 7631 7689 7726 7745
1036.0688 7747 7733 7705 7663 7610 7547 7475 7397 7312 7222 7128 7035 6948
1042.3364 6873 6815 6780 6771 6790 6836 6909 7007 7129 7269 7423 7582 7738
1048.6039 7884 8013 8124 8216 8289 8343 8378 8392 8389 8371 8343 8309 8272
1054.8715 8233 8191 8144 8094 8039 7980 7917 7851 7780 7706 7629 7551 7473
1061.1389 7399 7330 7265 7203 7142 7078 7010 6936 6860 6787 6725 6682 6666
1067.4065 6679 6719 6779 6850 6921 6983 7028 7051 7050 7027 6989 6944 6898
1073.6740 6859 6828 6809 6801 6807 6827 6864 6916 6983 7062 7148 7237 7323
1079.9415 7400 7467 7520 7561 7591 7610 7621 7625 7626 7625 7626 7629 7634
1086.2090 7643 7652 7662 7670 7675 7675 7666 7650 7627 7597 7561 7520 7473
1092.4766 7420 7361 7297 7230 7161 7091 7020 6947 6873 6799 6725 6653 6585
1098.7440 6520 6457 6398 6342 6290 6240 6189 6136 6077 6012 5944 5875 5807
1105.0116 5740 5672 5601 5524 5443 5360 5280 5204 5132 5066 5007 4961 4933
1111.2791 4932 4962 5023 5112 5220 5334 5445 5541 5615 5665 5691 5696 5686
1117.5466 5667 5645 5626 5614 5613 5628 5661 5712 5781 5863 5953 6046 6141
1123.8141 6238 6337 6440 6545 6649 6748 6837 6912 6969 7010 7036 7047 7047
1130.0817 7036 7017 6991 6961 6930 6902 6878 6862 6851 6846 6844 6843 6843
1136.3491 6844 6850 6862 6880 6903 6928 6953 6977 7004 7035 7072 7117 7168
1142.6167 7223 7279 7338 7399 7465 7536 7612 7692 7776 7862 7950 8042 8137
1148.8842 8233 8329 8421 8509 8593 8675 8758 8840 8923 9002 9075 9139 9194
1155.1517 9242 9286 9327 9365 9397 9421 9435 9440 9437 9428 9415 9399 9382
1161.4192 9363 9343 9322 9300 9278 9254 9231 9206 9181 9156 9131 9106 9084
1167.6868 9064 9047 9032 9019 9006 8994 8983 8972 8961 8952 8942 8934 8928
1173.9542 8923 8920 8915 8908 8898 8884 8867 8850 8833 8817 8803 8787 8771
1180.2218 8753 8733 8711 8687 8661 8635 8610 8584 8558 8533 8507 8482 8458
1186.4893 8437 8418 8400 8379 8352 8315 8266 8205 8137 8065 7995 7929 7868
1192.7568 7814 7766 7724 7687 7654 7624 7598 7577 7562 7558 7565 7585 7618
1199.0243 7663 7718 7780 7846 7912 7978 8040 8100 8156 8212 8266 8321 8375
1205.2919 8427 8475 8516 8551 8580 8603 8619 8629 8632 8628 8616 8598 8572
1211.5593 8541 8506 8469 8431 8394 8356 8317 8277 8235 8192 8149 8106 8062
1217.8269 8016 7970 7926 7886 7854 7831 7819 7817 7827 7847 7879 7922 7974
1224.0944 8034 8098 8163 8228 8291 8349 8404 8453 8499 8542 8584 8624 8665
1230.3619 8705 8743 8778 8808 8832 8849 8857 8855 8841 8816 8778 8730 8674
1236.6294 8613 8547 8477 8402 8323 8239 8152 8063 7973 7880 7785 7689 7593
1242.8970 7503 7421 7349 7291 7244 7210 7187 7175 7176 7188 7213 7249 7293
1249.1644 7343 7397 7452 7507 7560 7610 7656 7697 7733 7763 7789 7810 7826
1255.4320 7839 7847 7852 7853 7851 7845 7834 7817 7794 7767 7739 7709 7680
1261.6995 7651 7621 7590 7556 7522 7489 7459 7434 7413 7396 7378 7353 7318
1267.9670 7273 7224 7177 7139 7110 7092 7081 7078 7080 7086 7095 7106 7118
1274.2345 7131 7146 7164 7186 7215 7251 7294 7344 7401 7465 7535 7610 7690
1280.5021 7773 7860 7947 8033 8116 8191 8255 8307 8344 8365 8370 8358 8331
1286.7695 8288 8234 8172 8107 8041 7977 7914 7853 7793 7733 7673 7615 7558
1293.0371 7504 7453 7407 7366 7331 7300 7275 7254 7237 7223 7212 7203 7197
1299.3046 7192 7188 7186 7185 7185 7184 7182 7175 7162 7140 7109 7071 7024
1305.5721 6970 6909 6843 6772 6698 6624 6550 6479 6413 6355 6306 6269 6243
1311.8396 6228 6224 6229 6241 6258 6280 6303 6328 6354 6379 6404 6430 6459
1318.1072 6493 6533 6581 6634 6690 6746 6801 6856 6912 6970 7029 7090 7152
1324.3746 7213 7274 7335 7397 7458 7520 7581 7642 7704 7766 7829 7893 7958
1330.6422 8021 8082 8140 8194 8242 8285 8323 8357 8388 8416 8443 8468 8490
1336.9097 8510 8527 8540 8552 8564 8577 8593 8609 8625 8640 8654 8667 8682
1343.1772 8699 8717 8737 8758 8780 8804 8830 8856 8883 8909 8932 8954 8973
1349.4447 8989 9002 9011 9016 9015 9010 9002 8994 8986 8978 8970 8961 8950
1355.7123 8938 8924 8910 8893 8875 8854 8831 8803 8770 8733 8692 8649 8605
1361.9797 8562 8523 8493 8477 8476 8491 8517 8553 8594 8640 8687 8733 8776
1368.2473 8816 8852 8881 8905 8923 8939 8954 8970 8987 9008 9034 9064 9095
1374.5148 9123 9144 9155 9161 9162 9161 9157 9150 9140 9127 9111 9095 9078
1380.7823 9061 9044 9027 9011 8995 8978 8961 8945 8929 8914 8901 8890 8881
1387.0498 8880 8888 8905 8928 8955 8985 9020 9062 9109 9161 9214 9267 9318
1393.3174 9371 9428 9490 9555 9616 9670 9715 9754 9789 9822 9851 9878 9901
1399.5848 9923 9944 9965 9987 10007 10023 10034 10039 10039 10035 10028 10020
1405.3702 10014 10012 10016 10027 10045 10068 10094 10123 10150 10174 10194
1410.6736 10209 10218 10219 10210 10189 10157 10118 10073 10026 9980 9937 9901
1416.4590 9871 9849 9834 9825 9822 9828 9842 9857 9869 9875 9875 9867 9849
1422.7264 9815 9763 9697 9630 9572 9526 9488 9455 9425 9397 9373 9352 9333
1428.9940 9314 9292 9268 9245 9225 9208 9193 9179 9166 9155 9147 9141 9136
1435.2615 9132 9129 9127 9127 9129 9130 9129 9127 9122 9116 9109 9101 9094
1441.5291 9088 9083 9080 9077 9074 9072 9070 9069 9070 9071 9074 9078 9083
1447.7965 9087 9091 9095 9098 9103 9108 9116 9126 9135 9143 9150 9155 9160
1454.0641 9166 9172 9182 9194 9211 9230 9249 9263 9273 9281 9288 9294 9301
1460.3315 9310 9321 9337 9357 9377 9398 9417 9437 9461 9489 9519 9545 9566
1466.5991 9584 9600 9614 9626 9631 9629 9619 9604 9585 9562 9536 9511 9496
1472.8666 9496 9504 9516 9527 9543 9568 9606 9657 9711 9759 9796 9825 9849
1479.1342 9870 9888 9901 9911 9915 9915 9910 9900 9886 9868 9848 9829 9811
1485.4016 9796 9785 9776 9770 9767 9767 9769 9770 9766 9755 9737 9718 9702
1491.6692 9684 9660 9625 9579 9525 9462 9386 9290 9170 9040 8933 8876 8876
1497.9366 8926 9015 9126 9238 9336 9420 9498 9577 9660 9741 9811 9868 9912
1504.2042 9950 9985 10020 10048 10052 10016 9966 9928 9903 9885 9873 9864 9859
1510.4717 9856 9852 9847 9839 9831 9825 9823 9825 9829 9833 9834 9831 9818
1516.7393 9801 9788 9785 9790 9798 9805 9807 9801 9780 9744 9711 9696 9695
1523.0067 9698 9699 9697 9690 9678 9660 9641 9622 9604 9583 9562 9541 9524
1529.2743 9511 9502 9494 9485 9473 9460 9446 9433 9423 9418 9415 9412 9409
1535.5417 9403 9397 9391 9385 9380 9377 9374 9373 9369 9363 9355 9350 9350
1541.8093 9355 9364 9374 9383 9390 9394 9398 9402 9407 9412 9417 9421 9425
1548.0768 9428 9430 9432 9435 9437 9440 9443 9447 9451 9455 9459 9463 9466
1554.3444 9469 9473 9479 9486 9493 9501 9509 9510 9495 9457 9431 9439 9458
1560.6118 9474 9487 9497 9506 9512 9518 9523 9526 9529 9531 9534 9537 9542
1566.8794 9546 9549 9550 9545 9530 9506 9480 9461 9449 9439 9428 9414 9397
1573.1469 9378 9360 9343 9326 9303 9269 9224 9184 9158 9141 9128 9114 9098
1579.4144 9082 9066 9052 9040 9030 9020 9009 8998 8987 8976 8967 8959 8954
1585.6819 8949 8944 8938 8931 8922 8915 8910 8909 8912 8917 8924 8929 8934
1591.9495 8937 8938 8937 8935 8931 8924 8915 8903 8888 8870 8849 8825 8799
1598.2170 8771 8741 8709 8674 8638 8601 8563 8524 8486 8447 8410 8375 8344
1604.4845 8318 8296 8276 8258 8241 8224 8208 8194 8180 8167 8152 8137 8122
1610.7521 8107 8093 8081 8069 8059 8048 8037 8027 8015 8003 7989 7974 7961
1617.0195 7954 7951 7949 7947 7945 7943 7940 7938 7936 7934 7933 7934 7938
1623.2871 7944 7947 7946 7941 7933 7922 7909 7892 7871 7845 7816 7786 7756
1629.5546 7725 7690 7649 7602 7552 7501 7456 7416 7382 7348 7311 7262 7204
1635.8221 7151 7114 7088 7065 7042 7019 6997 6975 6953 6930 6904 6877 6849
1642.0896 6820 6793 6766 6741 6717 6692 6664 6631 6594 6555 6522 6494 6468
1648.3572 6443 6417 6393 6371 6351 6332 6313 6295 6281 6282 6307 6329 6335
1654.6246 6335 6337 6341 6348 6358 6370 6383 6398 6414 6432 6452 6471 6490
1660.8922 6507 6526 6550 6581 6615 6645 6666 6678 6687 6694 6701 6707 6712
1667.1597 6715 6718 6726 6742 6764 6787 6806 6822 6841 6863 6887 6909 6926
1673.4272 6941 6958 6986 7033 7093 7147 7186 7213 7236 7260 7286 7317 7355
1679.6947 7399 7446 7489 7524 7549 7565 7576 7592 7638 7744 7867 7936 7966
1685.9623 7984 8004 8029 8062 8104 8152 8205 8258 8308 8355 8400 8444 8488
1692.2297 8532 8574 8615 8652 8686 8723 8772 8843 8926 8996 9045 9080 9109
1698.4973 9138 9175 9237 9347 9469 9537 9564 9579 9597 9621 9656 9699 9748
1704.7648 9798 9844 9885 9926 9965 10003 10036 10067 10097 10128 10161 10195
1710.5502 10229 10261 10290 10319 10346 10373 10400 10426 10451 10475 10497
1715.8535 10518 10533 10541 10535 10516 10498 10494 10500 10512 10524 10536
1721.1567 10545 10553 10560 10565 10568 10568 10567 10565 10564 10564 10565
1726.4601 10567 10568 10568 10566 10559 10545 10525 10500 10476 10457 10445
1731.7633 10437 10427 10410 10376 10322 10274 10255 10257 10262 10263 10258
1737.0667 10247 10231 10212 10184 10144 10091 10035 9987 9952 9922 9887 9837
1742.8521 9769 9688 9604 9528 9458 9389 9317 9240 9156 9064 8964 8863 8769
1749.1195 8688 8618 8552 8486 8419 8361 8321 8299 8290 8291 8298 8313 8339
1755.3871 8380 8438 8513 8598 8685 8766 8841 8909 8974 9037 9100 9168 9244
1761.6545 9325 9398 9454 9495 9528 9558 9588 9618 9643 9663 9678 9691 9706
1767.9221 9724 9742 9759 9771 9782 9792 9801 9812 9823 9832 9837 9842 9847
1774.1896 9853 9861 9871 9882 9893 9902 9908 9912 9915 9918 9921 9925 9929
1780.4572 9932 9936 9940 9944 9949 9954 9957 9960 9962 9964 9966 9969 9974
1786.7246 9979 9984 9988 9992 9995 9996 9996 9996 9996 9999 10003 10009 10012
1792.9922 10012 10010 10007 10004 10003 10004 10008 10012 10017 10020 10022
1798.2954 10023 10024 10024 10023 10021 10020 10019 10021 10025 10030 10035
1803.5988 10038 10039 10038 10037 10035 10034 10033 10033 10034 10036 10037
1808.9020 10038 10038 10035 10030 10026 10023 10022 10023 10026 10030 10034
1814.2053 10039 10043 10046 10047 10046 10042 10038 10034 10032 10031 10030
1819.5085 10029 10027 10025 10024 10025 10027 10029 10032 10032 10031 10031
1824.8119 10032 10037 10042 10046 10047 10043 10036 10027 10019 10017 10022
1830.1151 10032 10042 10048 10049 10047 10044 10042 10040 10041 10042 10042
1835.4185 10042 10040 10040 10040 10042 10046 10051 10055 10060 10062 10063
1840.7217 10062 10058 10052 10045 10036 10026 10017 10011 10010 10013 10018
1846.0250 10022 10027 10032 10038 10045 10049 10050 10049 10046 10043 10043
1851.3282 10045 10049 10052 10054 10055 10054 10053 10053 10055 10058 10063
1856.6316 10068 10075 10081 10086 10091 10093 10093 10092 10088 10083 10076
1861.9348 10069 10064 10062 10063 10068 10074 10080 10084 10085 10084 10083
1867.2382 10086 10093 10105 10117 10125 10125 10118 10107 10097 10089 10086
1872.5414 10088 10091 10094 10095 10092 10089 10086 10085 10085 10087 10090
1877.8447 10094 10097 10100 10101 10099 10094 10089 10087 10090 10097 10106
1883.1479 10114 10116 10113 10108 10104 10105 10110 10118 10123 10122 10115
1888.4513 10104 10093 10090 10095 10106 10115 10120 10119 10113 10105 10096
1893.7545 10086 10077 10070 10067 10070 10079 10092 10107 10121 10134 10145
1899.0579 10152 10155 10154 10148 10139 10131 10126 10126 10128 10130 10127
1904.3611 10119 10109 10101 10097 10098 10104 10113 10123 10134 10143 10149
1909.6644 10148 10139 10123 10102 10082 10069 10067 10076 10094 10115 10134
1914.9677 10147 10152 10149 10139 10123 10106 10092 10086 10089 10099 10109
1920.2710 10117 10122 10124 10127 10133 10144 10157 10168 10175 10173 10164
1925.5742 10148 10127 10109 10097 10097 10107 10123 10138 10148 10154 10159
1930.8776 10164 10169 10170 10163 10148 10132 10120 10116 10122 10134 10145
1936.1808 10155 10159 10158 10152 10142 10131 10125 10127 10136 10149 10158
1941.4841 10158 10146 10128 10113 10107 10113 10128 10149 10172 10192 10201
1946.7874 10197 10182 10163 10150 10149 10161 10184 10207 10222 10219 10198
1952.0907 10165 10132 10111 10110 10129 10161 10191 10212 10221 10223 10225
1957.3939 10234 10247 10260 10264 10257 10242 10223 10205 10187 10168 10148
1962.6973 10128 10116 10121 10149 10201 10267 10328 10360 10347 10288 10205
1968.0005 10129 10087 10086 10119 10166 10208 10236 10254 10274 10302 10335
1973.3038 10360 10358 10316 10239 10144 10058 10003 9993 10025 10082 10142
1978.6071 10187 10212 10222 10225 10227 10228 10224 10213 10196 10180 10169
1983.9104 10166 10166 10161 10145 10118 10087 10063 10054 10066 10094 10130
1989.2136 10164 10187 10197 10197 10191 10185 10185 10190 10198 10203 10203
1994.5170 10197 10184 10167 10147 10127 10113 10108 10115 10132 10155 10175
1999.8202 10187 10187 10174 10148 10113 10077 10049 10041 10055 10089 10130
2005.1235 10164 10186 10198 10207 10217 10222 10214 10186 10144 10095 10050
2010.4268 10009 9970 9932 9903 9896 9923 9987 10079 10180 10271 10336 10361
2016.2122 10342 10284 10203 10121 10058 10030 10040 10081 10141 10206 10266
2021.5155 10313 10340 10344 10323 10280 10226 10177 10148 10151 10187 10246
2026.8187 10310 10355 10367 10341 10289 10230 10182 10153 10144 10151 10166
2032.1221 10184 10203 10218 10228 10233 10239 10251 10272 10297 10314 10311
2037.4253 10281 10231 10180 10145 10138 10156 10183 10202 10204 10192 10180
2042.7286 10182 10200 10226 10246 10248 10233 10210 10189 10182 10188 10201
2048.0320 10213 10213 10198 10171 10140 10116 10108 10117 10139 10165 10188
2053.3352 10201 10204 10200 10191 10181 10171 10158 10145 10132 10121 10116
2058.6384 10116 10120 10128 10134 10136 10129 10110 10082 10048 10016 9994
2063.9417 9985 9992 10011 10038 10067 10093 10115 10129 10133 10128 10113
2069.2451 10094 10075 10063 10058 10057 10058 10056 10052 10048 10045 10045
2074.5483 10048 10052 10058 10065 10074 10085 10094 10101 10103 10099 10091
2079.8516 10080 10069 10058 10049 10042 10040 10043 10051 10063 10073 10077
2085.1548 10073 10063 10052 10045 10045 10049 10052 10049 10042 10032 10024
2090.4583 10020 10018 10016 10014 10013 10013 10014 10018 10022 10028 10035
2095.7615 10041 10043 10038 10026 10013 10008 10016 10036 10062 10082 10089
2101.0647 10082 10065 10047 10032 10025 10023 10025 10030 10034 10037 10036
2106.3679 10030 10019 10005 9991 9978 9970 9969 9974 9984 9996 10004 10008
2112.1533 10007 10004 10005 10014 10028 10045 10057 10062 10058 10050 10043
2117.4568 10039 10039 10040 10042 10041 10038 10034 10027 10017 10004 9988
2122.7600 9974 9965 9965 9974 9990 10011 10032 10050 10063 10069 10065 10051
2128.5454 10033 10016 10007 10007 10014 10021 10024 10019 10010 10000 9992
2133.8486 9986 9981 9975 9969 9963 9959 9957 9956 9957 9962 9973 9988 10003
2140.1162 10014 10017 10013 10008 10007 10014 10026 10036 10034 10016 9984
2145.4194 9950 9927 9923 9936 9956 9970 9971 9961 9943 9924 9907 9892 9882
2151.6870 9883 9898 9927 9965 9999 10017 10014 9993 9965 9940 9928 9928 9939
2157.9546 9955 9973 9988 9999 10001 9993 9974 9952 9933 9925 9926 9929 9925
2164.2219 9906 9873 9836 9806 9791 9792 9801 9812 9821 9828 9840 9860 9887
2170.4895 9915 9937 9947 9947 9939 9929 9916 9898 9871 9838 9806 9791 9805
2176.7571 9851 9923 10003 10072 10111 10114 10082 10023 9955 9893 9853 9842
2182.5425 9857 9884 9908 9918 9913 9903 9899 9909 9931 9955 9971 9974 9970
2188.8101 9964 9962 9962 9958 9944 9923 9903 9895 9903 9924 9945 9955 9949
2195.0774 9928 9901 9874 9853 9840 9836 9844 9863 9893 9925 9949 9960 9953
2201.3450 9933 9907 9884 9869 9865 9872 9888 9909 9933 9958 9980 9995 9998
2207.6125 9987 9961 9926 9891 9868 9865 9881 9911 9943 9963 9962 9942 9910
2213.8801 9880 9863 9864 9879 9900 9917 9928 9930 9926 9916 9903 9889 9880
2220.1475 9880 9891 9907 9920 9923 9915 9902 9895 9897 9906 9914 9913 9902
2226.4150 9884 9864 9848 9837 9829 9823 9817 9811 9807 9805 9806 9812 9824
2232.6826 9841 9860 9875 9880 9877 9868 9861 9862 9871 9880 9880 9866 9839
2238.9502 9808 9783 9771 9773 9784 9800 9815 9828 9837 9842 9843 9839 9829
2245.2175 9815 9799 9783 9770 9763 9762 9765 9772 9782 9790 9795 9792 9782
2251.4851 9765 9747 9733 9727 9727 9728 9726 9720 9711 9706 9707 9714 9719
2257.7527 9719 9712 9700 9692 9691 9698 9710 9720 9724 9721 9715 9709 9707
2264.0203 9712 9721 9733 9743 9746 9741 9731 9719 9709 9703 9702 9704 9706
2270.2876 9708 9710 9714 9720 9727 9733 9735 9732 9722 9707 9693 9682 9677
2276.5552 9677 9679 9680 9679 9678 9680 9685 9693 9700 9705 9703 9696 9686
2282.8228 9678 9674 9675 9681 9688 9695 9697 9695 9688 9680 9673 9668 9666
2289.0903 9666 9668 9668 9666 9660 9652 9642 9635 9631 9632 9638 9646 9653
2295.3577 9658 9659 9658 9655 9651 9649 9648 9648 9648 9649 9649 9649 9647
2301.6252 9643 9636 9628 9620 9614 9612 9612 9612 9610 9606 9601 9594 9588
2307.8928 9583 9579 9576 9575 9576 9581 9588 9596 9604 9610 9611 9608 9601
2314.1604 9593 9586 9582 9583 9585 9586 9583 9577 9567 9557 9548 9542 9540
2320.4277 9542 9547 9553 9558 9559 9558 9556 9555 9557 9559 9557 9549 9536
2326.6953 9520 9507 9500 9503 9513 9527 9541 9550 9552 9547 9537 9524 9512
2332.9629 9501 9493 9488 9487 9489 9495 9505 9515 9525 9532 9534 9528 9515
2339.2305 9495 9472 9454 9448 9455 9473 9496 9515 9525 9524 9515 9501 9490
2345.4978 9483 9485 9493 9504 9514 9519 9519 9513 9504 9493 9483 9477 9476
2351.7654 9481 9489 9498 9507 9516 9525 9528 9522 9501 9466 9423 9385 9364
2358.0330 9368 9393 9431 9469 9499 9517 9522 9514 9496 9470 9443 9425 9421
2364.3005 9434 9458 9486 9511 9527 9533 9530 9522 9511 9504 9501 9502 9503
2370.5679 9500 9492 9480 9469 9462 9460 9462 9465 9466 9463 9459 9455 9451
2376.8354 9449 9450 9452 9455 9459 9460 9459 9454 9447 9439 9433 9430 9430
2383.1030 9432 9435 9437 9440 9441 9443 9444 9444 9444 9443 9441 9436 9432
2389.3706 9428 9427 9428 9431 9433 9433 9428 9422 9415 9410 9407 9407 9408
2395.6379 9409 9409 9409 9408 9406 9402 9398 9395 9394 9394 9394 9394 9392
2401.9055 9388 9384 9383 9383 9387 9391 9394 9394 9391 9386 9381 9377 9374
2408.1731 9372 9368 9365 9361 9358 9356 9356 9356 9356 9355 9354 9353 9353
2414.4407 9352 9351 9347 9342 9337 9332 9328 9328 9330 9334 9339 9343 9345
2420.7080 9344 9341 9335 9329 9323 9315 9308 9301 9293 9286 9281 9276 9274
2426.9756 9273 9272 9273 9272 9270 9267 9261 9255 9249 9244 9241 9239 9237
2433.2432 9232 9226 9220 9215 9212 9211 9211 9211 9210 9208 9206 9204 9203
2439.5107 9203 9204 9204 9203 9200 9194 9186 9178 9172 9168 9168 9171 9176
2445.7781 9182 9185 9186 9183 9176 9165 9153 9141 9130 9121 9114 9107 9102
2452.0457 9098 9096 9095 9095 9095 9094 9091 9088 9085 9084 9083 9083 9081
2458.3132 9076 9067 9055 9044 9036 9032 9033 9037 9042 9046 9047 9045 9040
2464.5808 9035 9030 9026 9025 9026 9029 9033 9037 9040 9042 9043 9042 9039
2470.8481 9036 9032 9029 9026 9024 9022 9019 9015 9012 9011 9013 9017 9022
2477.1157 9027 9032 9036 9040 9044 9046 9045 9043 9039 9035 9031 9028 9025
2483.3833 9022 9018 9014 9011 9010 9013 9017 9024 9029 9034 9036 9037 9036
2489.6509 9036 9034 9031 9028 9026 9026 9027 9028 9027 9025 9020 9014 9008
2495.9182 9003 8999 8997 8998 9000 9002 9003 9001 8995 8986 8976 8968 8963
2502.1858 8963 8968 8976 8985 8991 8993 8988 8980 8970 8962 8956 8953 8954
2508.4534 8955 8955 8954 8951 8947 8943 8942 8943 8946 8950 8955 8958 8960
2514.7209 8961 8959 8955 8949 8943 8937 8932 8928 8926 8926 8929 8933 8937
2520.9883 8938 8934 8926 8915 8904 8897 8896 8900 8908 8915 8918 8916 8909
2527.2559 8898 8887 8879 8875 8876 8879 8883 8885 8882 8874 8864 8853 8845
2533.5234 8840 8837 8835 8829 8821 8812 8803 8799 8798 8801 8805 8809 8811
2539.7910 8811 8810 8808 8805 8801 8797 8792 8788 8785 8783 8781 8779 8778
2546.0583 8777 8776 8775 8774 8773 8772 8770 8769 8766 8764 8762 8761 8760
2552.3259 8761 8763 8767 8771 8775 8777 8776 8773 8768 8762 8758 8757 8760
2558.5935 8767 8775 8783 8788 8791 8792 8791 8789 8787 8785 8782 8779 8776
2564.8611 8773 8770 8766 8760 8751 8739 8725 8711 8698 8688 8681 8676 8674
2571.1284 8673 8674 8675 8675 8674 8670 8664 8656 8649 8644 8642 8643 8645
2577.3960 8647 8647 8644 8640 8635 8630 8627 8626 8627 8628 8628 8628 8626
2583.6636 8624 8624 8624 8625 8626 8626 8625 8624 8623 8620 8617 8612 8606
2589.9312 8603 8602 8604 8609 8614 8619 8623 8626 8629 8631 8631 8630 8628
2596.1987 8627 8626 8626 8626 8625 8623 8619 8616 8613 8613 8616 8622 8629
2602.4661 8636 8641 8643 8640 8633 8625 8617 8613 8614 8619 8627 8634 8637
2608.7336 8636 8632 8627 8622 8619 8616 8613 8609 8605 8601 8599 8597 8596
2615.0012 8594 8592 8589 8586 8583 8580 8577 8573 8568 8563 8560 8559 8559
2621.2688 8559 8560 8561 8561 8562 8562 8562 8561 8558 8554 8550 8548 8548
2627.5361 8549 8550 8549 8548 8546 8546 8547 8550 8553 8554 8553 8550 8547
2633.8037 8545 8545 8547 8550 8554 8556 8557 8559 8560 8561 8562 8563 8563
2640.0713 8562 8562 8563 8567 8571 8576 8580 8583 8585 8587 8588 8590 8591
2646.3389 8591 8590 8589 8587 8586 8586 8587 8589 8592 8594 8597 8600 8601
2652.6062 8602 8602 8601 8600 8599 8599 8599 8600 8602 8604 8607 8610 8612
2658.8738 8613 8613 8612 8610 8609 8609 8610 8612 8614 8615 8617 8617 8617
2665.1414 8616 8615 8614 8612 8611 8611 8610 8610 8608 8606 8604 8603 8603
2671.4089 8603 8605 8605 8606 8605 8603 8601 8600 8599 8598 8596 8594 8590
2677.6763 8586 8583 8579 8576 8575 8574 8573 8572 8570 8568 8565 8563 8562
2683.9438 8562 8563 8563 8563 8563 8562 8560 8558 8557 8555 8554 8553 8551
2690.2114 8549 8547 8545 8545 8545 8546 8546 8547 8548 8549 8549 8549 8548
2696.4790 8546 8543 8541 8541 8541 8542 8544 8546 8548 8548 8548 8548 8547
2702.7463 8545 8544 8542 8540 8540 8540 8542 8544 8546 8547 8548 8547 8547
2709.0139 8547 8549 8551 8554 8557 8560 8562 8563 8563 8561 8558 8556 8555
2715.2815 8556 8559 8563 8567 8570 8571 8572 8573 8573 8574 8575 8578 8582
2721.5491 8587 8591 8594 8595 8594 8593 8593 8595 8598 8602 8605 8608 8608
2727.8164 8608 8608 8608 8608 8609 8611 8614 8617 8621 8625 8627 8628 8629
2734.0840 8629 8629 8631 8634 8639 8643 8647 8648 8647 8644 8640 8638 8639
2740.3516 8642 8646 8649 8651 8652 8652 8653 8655 8658 8661 8663 8664 8665
2746.6191 8665 8666 8667 8669 8672 8674 8676 8677 8677 8676 8675 8674 8674
2752.8865 8675 8678 8682 8687 8692 8696 8697 8697 8696 8695 8695 8697 8699
2759.1541 8703 8705 8706 8707 8707 8707 8708 8710 8714 8718 8723 8728 8732
2765.4216 8736 8738 8740 8741 8741 8741 8741 8742 8744 8747 8751 8756 8761
2771.6892 8766 8771 8776 8781 8785 8789 8792 8794 8797 8800 8804 8808 8813
2777.9565 8817 8819 8820 8820 8820 8822 8826 8832 8837 8842 8845 8847 8849
2784.2241 8850 8852 8854 8857 8860 8863 8865 8869 8872 8876 8881 8886 8891
2790.4917 8896 8901 8905 8907 8908 8907 8906 8906 8907 8909 8912 8913 8914
2796.7593 8915 8916 8917 8918 8918 8917 8916 8914 8913 8913 8913 8913 8913
2803.0266 8913 8914 8917 8920 8922 8924 8924 8922 8920 8918 8917 8916 8916
2809.2942 8917 8919 8921 8923 8925 8926 8926 8925 8924 8923 8924 8925 8927
2815.5618 8930 8932 8934 8936 8938 8941 8944 8949 8954 8958 8962 8965 8967
2821.8293 8968 8969 8970 8972 8974 8978 8982 8986 8989 8990 8991 8992 8993
2828.0967 8996 9000 9004 9008 9010 9011 9011 9012 9013 9016 9019 9022 9024
2834.3643 9026 9026 9027 9027 9027 9028 9030 9032 9034 9037 9040 9043 9045
2840.6318 9046 9047 9047 9046 9045 9043 9041 9039 9039 9040 9043 9047 9051
2846.8994 9055 9059 9063 9068 9074 9080 9085 9090 9093 9093 9093 9091 9088
2853.1667 9086 9086 9086 9087 9088 9088 9086 9083 9079 9076 9073 9071 9070
2859.4343 9069 9068 9067 9066 9066 9066 9066 9066 9067 9067 9066 9064 9061
2865.7019 9057 9053 9051 9051 9054 9058 9061 9064 9063 9061 9058 9055 9053
2871.9695 9053 9053 9052 9051 9048 9046 9044 9044 9044 9045 9044 9043 9040
2878.2368 9038 9035 9033 9031 9029 9027 9027 9027 9028 9029 9030 9029 9026
2884.5044 9021 9015 9008 9001 8996 8993 8991 8991 8993 8995 8996 8996 8994
2890.7720 8992 8990 8990 8990 8990 8989 8986 8981 8976 8971 8969 8968 8966
2897.0396 8964 8959 8952 8941 8927 8912 8896 8881 8866 8853 8842 8832 8824
2903.3069 8817 8812 8810 8811 8814 8818 8821 8822 8820 8814 8807 8799 8791
2909.5745 8784 8776 8764 8748 8726 8699 8667 8633 8598 8565 8535 8513 8501
2915.8420 8500 8513 8538 8575 8619 8667 8716 8762 8804 8840 8870 8896 8919
2922.1096 8939 8956 8971 8983 8993 9003 9013 9024 9035 9042 9046 9046 9042
2928.3770 9038 9034 9031 9029 9027 9025 9024 9023 9020 9017 9012 9006 8999
2934.6445 8993 8987 8980 8974 8967 8960 8953 8946 8938 8930 8922 8915 8910
2940.9121 8907 8906 8905 8904 8902 8899 8897 8894 8892 8889 8885 8878 8869
2947.1797 8859 8848 8837 8827 8817 8807 8798 8789 8782 8777 8774 8772 8769
2953.4470 8765 8758 8751 8744 8740 8738 8737 8735 8732 8726 8718 8709 8699
2959.7146 8688 8678 8670 8664 8661 8661 8661 8660 8657 8652 8646 8638 8629
2965.9822 8620 8610 8601 8595 8592 8592 8592 8591 8587 8582 8573 8564 8554
2972.2498 8544 8535 8528 8522 8518 8514 8510 8505 8499 8494 8490 8487 8485
2978.5171 8481 8477 8473 8469 8466 8465 8464 8464 8465 8465 8465 8463 8459
2984.7847 8454 8448 8444 8441 8440 8440 8439 8436 8431 8423 8415 8408 8404
2991.0522 8403 8404 8406 8408 8408 8406 8402 8397 8392 8389 8385 8382 8379
2997.3198 8376 8374 8374 8376 8379 8383 8387 8390 8392 8394 8396 8399 8403
3003.5872 8407 8412 8417 8420 8421 8422 8422 8424 8426 8430 8435 8441 8447
3009.8547 8453 8459 8463 8466 8468 8471 8474 8477 8480 8483 8484 8486 8488
3016.1223 8491 8494 8496 8496 8495 8491 8487 8483 8480 8477 8475 8474 8474
3022.3899 8475 8478 8481 8485 8489 8492 8495 8497 8498 8499 8500 8501 8503
3028.6572 8504 8507 8510 8514 8518 8522 8527 8532 8536 8540 8544 8548 8553
3034.9248 8558 8563 8569 8575 8583 8592 8600 8608 8614 8619 8624 8631 8640
3041.1924 8648 8656 8662 8667 8672 8679 8687 8697 8707 8716 8724 8733 8742
3047.4600 8751 8759 8764 8767 8767 8765 8764 8763 8763 8764 8767 8770 8773
3053.7273 8776 8779 8784 8791 8800 8810 8818 8825 8828 8829 8829 8830 8833
3059.9949 8837 8842 8848 8857 8866 8877 8889 8900 8908 8914 8917 8920 8924
3066.2625 8930 8938 8947 8955 8961 8965 8969 8974 8980 8987 8996 9004 9010
3072.5300 9014 9017 9020 9024 9029 9035 9043 9051 9058 9064 9068 9068 9065
3078.7974 9061 9058 9057 9059 9063 9069 9075 9081 9085 9089 9093 9096 9101
3085.0649 9105 9110 9116 9123 9133 9144 9156 9167 9178 9186 9193 9198 9202
3091.3325 9206 9209 9210 9208 9204 9199 9196 9196 9199 9203 9207 9210 9212
3097.6001 9213 9214 9216 9219 9223 9228 9233 9237 9239 9239 9237 9235 9233
3103.8674 9232 9233 9236 9240 9244 9246 9245 9243 9239 9235 9232 9228 9225
3110.1350 9222 9219 9217 9217 9219 9223 9226 9228 9227 9225 9224 9226 9231
3116.4026 9238 9243 9246 9244 9239 9234 9230 9228 9227 9227 9228 9230 9233
3122.6702 9236 9240 9243 9244 9245 9244 9241 9237 9232 9226 9221 9218 9217
3128.9375 9218 9221 9225 9228 9229 9229 9228 9226 9224 9223 9223 9223 9222
3135.2051 9220 9217 9215 9214 9215 9219 9225 9233 9241 9248 9254 9258 9258
3141.4727 9255 9249 9241 9235 9232 9232 9235 9240 9244 9248 9251 9254 9257
3147.7402 9260 9263 9266 9269 9272 9274 9275 9272 9267 9261 9254 9249 9246
3154.0076 9245 9245 9245 9244 9243 9241 9240 9239 9237 9234 9231 9226 9219
3160.2751 9211 9204 9198 9195 9194 9193 9191 9187 9180 9173 9165 9157 9151
3166.5427 9145 9141 9138 9136 9136 9134 9131 9124 9113 9101 9088 9077 9067
3172.8103 9057 9049 9041 9036 9032 9030 9030 9028 9026 9021 9015 9008 9000
3179.0776 8991 8981 8971 8961 8954 8951 8949 8949 8949 8948 8944 8938 8930
3185.3452 8923 8915 8907 8900 8893 8888 8884 8880 8876 8869 8862 8853 8845
3191.6128 8839 8834 8830 8827 8825 8823 8822 8821 8821 8820 8816 8810 8802
3197.8804 8794 8787 8783 8781 8780 8781 8782 8781 8778 8772 8767 8763 8763
3204.1477 8767 8772 8778 8782 8785 8785 8785 8783 8781 8778 8777 8778 8782
3210.4153 8787 8793 8798 8802 8805 8810 8816 8822 8829 8835 8841 8846 8852
3216.6829 8858 8863 8868 8872 8876 8881 8888 8895 8903 8911 8919 8927 8937
3222.9504 8948 8960 8972 8983 8991 8996 9000 9003 9007 9012 9019 9027 9036
3229.2178 9045 9054 9062 9070 9076 9081 9086 9092 9098 9104 9109 9113 9117
3235.4854 9122 9130 9139 9149 9158 9164 9168 9169 9171 9174 9180 9187 9193
3241.7529 9199 9204 9208 9211 9215 9220 9226 9233 9238 9243 9246 9248 9250
3248.0205 9252 9254 9256 9259 9262 9266 9271 9275 9277 9278 9279 9278 9277
3254.2878 9277 9275 9274 9273 9273 9273 9272 9272 9271 9270 9269 9268 9266
3260.5554 9266 9265 9266 9266 9265 9265 9264 9263 9263 9263 9262 9259 9254
3266.8230 9249 9245 9244 9245 9248 9251 9252 9251 9248 9243 9239 9235 9232
3273.0906 9231 9229 9226 9221 9215 9210 9205 9200 9194 9185 9175 9164 9153
3279.3579 9144 9138 9135 9133 9131 9129 9126 9120 9111 9101 9090 9079 9069
3285.6255 9061 9055 9051 9047 9043 9038 9031 9020 9008 8995 8982 8971 8961
3291.8931 8954 8946 8937 8926 8913 8899 8884 8871 8859 8850 8842 8834 8826
3298.1606 8817 8808 8799 8789 8779 8768 8758 8750 8745 8742 8740 8736 8730
3304.4280 8721 8710 8700 8693 8690 8690 8692 8694 8695 8696 8699 8703 8711
3310.6956 8720 8731 8742 8753 8765 8777 8790 8805 8821 8838 8854 8869 8884
3316.9631 8899 8917 8939 8966 8997 9028 9057 9082 9104 9124 9143 9163 9184
3323.2307 9205 9226 9247 9268 9288 9308 9327 9344 9360 9375 9392 9410 9429
3329.4980 9449 9471 9494 9517 9539 9556 9570 9580 9589 9601 9617 9637 9656
3335.7656 9672 9681 9684 9684 9683 9685 9691 9702 9714 9727 9739 9747 9753
3342.0332 9759 9765 9773 9781 9789 9795 9801 9806 9813 9821 9830 9838 9844
3348.3008 9847 9847 9846 9845 9846 9849 9853 9857 9860 9861 9861 9861 9863
3354.5681 9867 9873 9878 9883 9888 9894 9899 9904 9908 9910 9910 9908 9907
3360.8357 9907 9908 9910 9912 9913 9915 9914 9912 9908 9902 9896 9892 9890
3367.1033 9892 9893 9893 9889 9883 9877 9872 9870 9869 9870 9872 9874 9878
3373.3708 9883 9887 9891 9891 9888 9884 9882 9883 9886 9892 9896 9897 9894
3379.6382 9888 9880 9871 9865 9860 9858 9858 9858 9858 9855 9848 9838 9825
3385.9058 9809 9792 9772 9747 9719 9686 9651 9613 9574 9533 9491 9447 9404
3392.1733 9361 9320 9282 9245 9211 9179 9149 9120 9091 9062 9033 9005 8980
3398.4409 8956 8936 8917 8898 8878 8857 8834 8811 8789 8772 8761 8757 8756
3404.7083 8759 8761 8764 8769 8780 8796 8818 8844 8869 8892 8913 8932 8954
3410.9758 8979 9010 9046 9087 9130 9172 9212 9249 9283 9314 9344 9373 9401
3417.2434 9430 9459 9490 9522 9557 9593 9626 9654 9675 9692 9708 9726 9747
3423.5110 9770 9791 9809 9823 9833 9842 9851 9861 9870 9879 9889 9899 9911
3429.7783 9924 9936 9945 9951 9954 9956 9958 9962 9969 9978 9989 10001 10012
3436.0459 10021 10027 10031 10032 10031 10028 10026 10025 10028 10032 10037
3441.3491 10042 10046 10048 10048 10048 10049 10051 10053 10054 10054 10054
3446.6526 10053 10055 10059 10066 10074 10081 10086 10088 10087 10085 10083
3451.9558 10081 10080 10081 10083 10086 10089 10090 10089 10085 10081 10080
3457.2590 10083 10091 10100 10108 10114 10117 10118 10116 10112 10106 10100
3462.5623 10095 10094 10097 10102 10108 10114 10118 10121 10125 10129 10134
3467.8657 10139 10143 10148 10154 10161 10170 10177 10183 10187 10190 10193
3473.1689 10195 10197 10200 10202 10202 10201 10200 10201 10203 10208 10214
3478.4722 10218 10219 10217 10211 10204 10198 10193 10190 10188 10186 10182
3483.7754 10175 10163 10149 10131 10112 10094 10076 10059 10043 10028 10015
3489.0789 10002 9989 9977 9963 9950 9935 9921 9908 9896 9887 9879 9869 9856
3495.3462 9838 9819 9801 9787 9778 9772 9765 9756 9745 9732 9718 9705 9691
3501.6138 9676 9658 9640 9623 9607 9593 9578 9560 9540 9520 9499 9478 9455
3507.8813 9430 9402 9373 9345 9319 9296 9273 9249 9222 9194 9165 9137 9109
3514.1489 9081 9052 9021 8987 8950 8912 8874 8838 8803 8771 8740 8712 8686
3520.4163 8662 8639 8619 8603 8593 8590 8594 8605 8621 8639 8661 8685 8715
3526.6838 8752 8797 8850 8909 8970 9028 9081 9128 9171 9213 9256 9301 9345
3532.9514 9388 9428 9464 9499 9533 9568 9602 9633 9660 9682 9701 9718 9737
3539.2190 9758 9782 9807 9833 9856 9875 9891 9903 9912 9919 9924 9927 9930
3545.4863 9933 9939 9949 9962 9976 9989 10000 10007 10011 10013 10012 10011
3551.2717 10011 10014 10020 10027 10034 10041 10047 10052 10058 10064 10068
3556.5752 10071 10070 10066 10060 10053 10046 10041 10039 10042 10050 10061
3561.8784 10074 10087 10098 10106 10112 10114 10114 10111 10103 10090 10075
3567.1816 10061 10053 10052 10054 10056 10057 10055 10052 10051 10051 10054
3572.4851 10059 10063 10066 10067 10064 10059 10054 10049 10046 10044 10042
3577.7883 10041 10040 10039 10039 10040 10041 10042 10040 10037 10033 10029
3583.0916 10026 10025 10025 10027 10030 10032 10033 10029 10021 10011 10002
3588.3948 9999 10003 10011 10019 10024 10026 10023 10020 10017 10018 10023
3593.6982 10028 10031 10030 10026 10022 10021 10022 10025 10027 10026 10021
3599.0015 10013 10004 9998 9997 10000 10006 10011 10014 10014 10012 10009
3604.3047 10007 10006 10005 10004 10002 9999 9994 9988 9983 9980 9982 9987
3610.0901 9996 10005 10014 10020 10022 10019 10013 10005 10000 9997 9997 9996
3615.8755 9993 9989 9982 9977 9976 9982 9993 10005 10011 10011 10006 9999 9993
3622.1431 9989 9988 9991 9995 10000 10004 10005 10002 9998 9994 9993 9995
3627.9285 10001 10006 10006 10003 10000 9998 9997 9993 9986 9976 9966 9959
3633.7139 9959 9965 9974 9981 9983 9983 9981 9980 9983 9989 9996 10001 10005
3639.9814 10006 10004 9999 9992 9982 9972 9965 9963 9966 9974 9984 9994 10002
3646.2488 10006 10004 9996 9986 9977 9969 9960 9952 9946 9948 9956 9967 9976
3652.5164 9983 9987 9987 9986 9986 9988 9992 9993 9991 9984 9977 9971 9970
3658.7839 9971 9976 9980 9982 9982 9980 9977 9976 9975 9974 9971 9967 9961
3665.0515 9957 9955 9956 9958 9960 9962 9963 9964 9965 9966 9966 9963 9959
3671.3188 9957 9957 9960 9963 9967 9968 9963 9949 9932 9926 9934 9949 9966
3677.5864 9980 9991 9994 9989 9978 9965 9955 9948 9945 9944 9945 9947 9951
3683.8540 9958 9966 9975 9983 9989 9992 9992 9988 9981 9973 9966 9962 9960
3690.1216 9959 9958 9958 9958 9957 9955 9951 9947 9942 9940 9940 9942 9947
3696.3889 9954 9962 9970 9977 9982 9983 9981 9977 9971 9963 9956 9951 9949
3702.6565 9951 9954 9957 9961 9964 9966 9967 9968 9969 9969 9968 9966 9963
3708.9241 9958 9950 9941 9929 9918 9910 9911 9922 9937 9952 9963 9971 9975
3715.1917 9977 9978 9977 9974 9970 9964 9954 9944 9937 9934 9935 9938 9942
3721.4590 9947 9951 9956 9961 9966 9971 9975 9975 9970 9960 9947 9936 9931
3727.7266 9932 9940 9950 9960 9965 9963 9953 9936 9919 9909 9910 9918 9930
3733.9941 9943 9953 9957 9952 9940 9927 9917 9912 9912 9918 9927 9939 9950
3740.2617 9959 9963 9964 9959 9952 9940 9923 9903 9892 9906 9933 9956 9970
3746.5291 9977 9975 9965 9946 9920 9897 9888 9895 9913 9933 9948 9954 9952
3752.7966 9949 9950 9954 9960 9966 9969 9970 9969 9968 9970 9971 9970 9964
3759.0642 9953 9940 9932 9930 9932 9936 9941 9945 9950 9954 9957 9959 9958
3765.3318 9953 9948 9943 9942 9943 9945 9947 9946 9944 9940 9937 9939 9943
3771.5991 9948 9953 9955 9955 9953 9950 9947 9948 9951 9956 9962 9966 9968
3777.8667 9967 9966 9964 9963 9962 9960 9958 9956 9953 9951 9950 9948 9947
3784.1343 9947 9946 9947 9948 9950 9952 9955 9957 9958 9957 9954 9950 9945
3790.4019 9943 9943 9946 9951 9956 9960 9963 9963 9961 9958 9954 9949 9944
3796.6692 9940 9937 9937 9940 9944 9948 9952 9952 9946 9933 9922 9921 9929
3802.9368 9942 9955 9965 9972 9974 9971 9962 9947 9934 9928 9928 9933 9938
3809.2043 9941 9943 9944 9943 9944 9947 9951 9956 9958 9956 9950 9938 9925
3815.4719 9917 9922 9936 9952 9963 9969 9971 9969 9965 9959 9952 9945 9942
3821.7393 9942 9943 9946 9948 9951 9954 9956 9960 9965 9972 9977 9979 9977
3828.0068 9971 9963 9957 9953 9952 9953 9956 9958 9957 9955 9952 9949 9945
3834.2744 9941 9937 9935 9934 9934 9935 9936 9937 9939 9942 9947 9954 9959
3840.5420 9963 9962 9958 9952 9945 9940 9938 9939 9944 9949 9953 9956 9958
3846.8093 9959 9959 9959 9959 9959 9957 9953 9949 9945 9944 9944 9946 9942
3853.0769 9929 9912 9904 9906 9912 9919 9925 9930 9934 9938 9942 9946 9951
3859.3445 9954 9956 9956 9954 9950 9946 9943 9940 9937 9932 9926 9924 9927
3865.6121 9933 9941 9946 9949 9947 9943 9935 9926 9919 9917 9919 9922 9924
3871.8794 9926 9927 9928 9930 9933 9937 9940 9942 9943 9944 9946 9948 9951
3878.1470 9954 9956 9955 9950 9942 9936 9934 9937 9942 9948 9952 9954 9952
3884.4146 9947 9940 9934 9933 9937 9944 9950 9956 9960 9961 9960 9956 9948
3890.6821 9937 9926 9918 9915 9916 9921 9929 9938 9946 9952 9955 9954 9952
3896.9495 9950 9951 9953 9957 9959 9959 9954 9947 9939 9930 9923 9919 9918
3903.2170 9922 9928 9933 9936 9936 9933 9931 9931 9935 9942 9949 9956 9959
3909.4846 9960 9958 9956 9954 9954 9954 9953 9951 9947 9944 9941 9938 9936
3915.7522 9935 9936 9941 9948 9956 9961 9963 9960 9955 9950 9948 9950 9953
3922.0195 9955 9955 9952 9945 9939 9935 9937 9941 9945 9946 9946 9944 9942
3928.2871 9943 9947 9952 9955 9952 9945 9934 9924 9919 9920 9926 9934 9940
3934.5547 9941 9939 9936 9934 9936 9940 9945 9948 9949 9947 9945 9943 9942
3940.8223 9941 9940 9938 9936 9935 9936 9938 9940 9943 9943 9941 9937 9930
3947.0896 9924 9920 9920 9922 9925 9928 9929 9930 9933 9936 9941 9945 9947
3953.3572 9947 9947 9946 9945 9943 9940 9935 9930 9926 9924 9925 9927 9930
3959.6248 9933 9935 9935 9936 9936 9936 9936 9936 9934 9931 9927 9925 9924
3965.8923 9926 9930 9936 9943 9948 9951 9948 9942 9932 9923 9919 9921 9928
3972.1597 9936 9943 9944 9942 9937 9932 9928 9926 9925 9923 9922 9922 9924
3978.4272 9928 9935 9941 9946 9949 9950 9949 9949 9949 9950 9949 9946 9942
3984.6948 9936 9930 9926 9924 9926 9929 9935 9941 9944 9945 9944 9940 9937
3990.9624 9935 9935 9936 9936 9934 9931 9926 9921 9916 9914 9914 9918 9924
3997.2297 9932 9938 9940 9938 9930 9920 9912
##END= 
