##TITLE= bkg
##JCAMP-DX= 4.24
##DATA TYPE= INFRARED SPECTRUM
##ORIGIN= JASCO
##OWNER= 
##DATE= 22/03/31
##TIME= 09:04:59
##SPECTROMETER/DATA SYSTEM= 
##RESOLUTION= 
##DELTAX=   0.48211674
##XUNITS= 1/CM
##YUNITS= ARBITRARY UNITS
##XFACTOR= 1.00000
##YFACTOR= 1E-005
##FIRSTX=   599.7532
##LASTX=  4000.1226
##NPOINTS=     7054
##FIRSTY=      1.11961
##MAXY=     10.14683
##MINY=      0.27436
##XYDATA= (X++(Y..Y))
599.7532 111961 112222 113111 114416 115780 116883 117590 117982 118268 118645
604.5744 119200 119907 120682 121450 122176 122846 123444 123947 124343 124648
609.3956 124906 125168 125457 125763 126052 126300 126521 126760 127059 127395
614.2167 127641 127587 127038 125947 124525 123220 122575 122986 124516 126839
619.0379 129382 131580 133106 133969 134424 134772 135168 135543 135680 135384
623.8591 134644 133683 132880 132587 132964 133899 135083 136172 136961 137457
628.6802 137820 138221 138713 139204 139539 139620 139482 139249 139037 138864
633.5014 138644 138279 137756 137187 136756 136617 136805 137228 137719 138120
638.3226 138338 138365 138250 138074 137901 137764 137644 137491 137249 136889
643.1437 136435 135961 135560 135299 135174 135088 134872 134362 133500 132398
647.9649 131325 130601 130436 130825 131539 132255 132711 132833 132737 132635
652.7861 132702 132990 133424 133879 134266 134582 134883 135216 135570 135894
657.6072 136170 136464 136912 137629 138627 139801 141005 142132 143147 144078
662.4284 145030 146236 148015 150475 152979 153731 149994 139220 120720 96914
667.2496 73190 56084 50568 57869 75045 96496 116495 131336 140118 144092
672.0707 145309 145461 145420 145392 145308 145108 144805 144443 144055 143672
676.8919 143342 143124 143064 143173 143424 143769 144158 144546 144902 145215
681.7131 145491 145757 146049 146412 146901 147562 148409 149393 150404 151301
686.5342 151981 152437 152775 153171 153802 154774 156086 157635 159263 160804
691.3554 162135 163203 164035 164728 165403 166161 167032 167965 168859 169635
696.1766 170299 170951 171739 172769 174042 175442 176803 177990 178948 179700
700.9977 180314 180859 181387 181934 182519 183134 183743 184298 184773 185194
705.8189 185628 186148 186789 187530 188314 189099 189884 190705 191593 192532
710.6401 193440 194202 194729 195018 195165 195322 195613 196057 196555 196962
715.4612 197194 197278 197296 197233 196875 195865 193948 191253 188415 186379
720.2824 185962 187420 190305 193683 196609 198538 199473 199791 199939 200193
725.1036 200598 201068 201507 201872 202160 202370 202494 202529 202504 202464
729.9247 202454 202493 202578 202697 202847 203021 203197 203329 203346 203181
734.7459 202796 202196 201420 200527 199559 198533 197432 196230 194913 193490
739.5671 191991 190448 188875 187260 185563 183742 181768 179648 177438 175230
744.3882 173120 171168 169369 167660 165966 164255 162566 161006 159694 158711
749.2094 158071 157737 157675 157898 158481 159511 161010 162874 164880 166768
754.0306 168362 169636 170683 171603 172392 172941 173151 173088 173030 173344
758.8517 174251 175630 177029 177878 177797 176782 175185 173502 172132 171252
763.6729 170842 170814 171121 171800 172924 174553 176684 179257 182165 185278
768.4941 188468 191624 194674 197590 200380 203078 205734 208404 211138 213950
773.3152 216786 219521 221998 224095 225788 227162 228362 229517 230681 231826
778.1364 232876 233763 234459 234984 235388 235739 236095 236488 236911 237316
782.9576 237639 237835 237909 237912 237914 237961 238054 238156 238227 238252
787.7787 238245 238239 238261 238320 238409 238513 238620 238721 238813 238897
792.5999 238978 239053 239118 239162 239184 239198 239238 239341 239527 239776
797.4211 240029 240204 240244 240145 239972 239836 239846 240056 240437 240902
802.2422 241346 241709 241997 242269 242589 242985 243426 243841 244156 244332
807.0634 244381 244361 244347 244399 244537 244737 244954 245152 245336 245555
811.8846 245876 246345 246952 247630 248283 248829 249232 249509 249709 249891
816.7057 250093 250329 250591 250865 251149 251456 251807 252208 252641 253061
821.5269 253426 253722 253976 254251 254603 255063 255624 256249 256899 257532
826.3481 258116 258626 259062 259462 259890 260417 261073 261832 262620 263362
831.1693 264022 264609 265164 265717 266276 266833 267381 267927 268485 269053
835.9904 269611 270130 270590 270990 271342 271656 271936 272188 272432 272707
840.8116 273060 273513 274055 274643 275230 275791 276326 276845 277347 277807
845.6328 278192 278498 278758 279043 279425 279934 280548 281205 281843 282423
850.4539 282935 283381 283756 284052 284281 284495 284787 285251 285941 286851
855.2751 287914 289043 290165 291234 292230 293148 293994 294786 295548 296308
860.0963 297073 297835 298583 299327 300101 300951 301899 302929 303993 305040
864.9174 306043 307004 307937 308851 309751 310649 311576 312573 313656 314804
869.7386 315963 317090 318182 319281 320435 321660 322916 324140 325289 326368
874.5598 327421 328492 329582 330658 331683 332662 333663 334781 336090 337598
879.3809 339238 340906 342515 344027 345461 346863 348265 349662 351021 352303
884.2021 353496 354621 355717 356816 357921 359012 360065 361081 362099 363180
889.0233 364384 365739 367226 368782 370318 371751 373026 374137 375122 376050
893.8444 376994 378002 379088 380230 381393 382541 383653 384727 385772 386801
898.6656 387820 388829 389820 390794 391761 392750 393790 394903 396083 397301
903.4868 398512 399681 400798 401882 402965 404067 405170 406223 407164 407963
908.3079 408654 409342 410156 411185 412424 413765 415052 416159 417058 417828
913.1291 418603 419494 420530 421651 422755 423753 424608 425340 426000 426639
917.9503 427296 427998 428763 429598 430491 431404 432286 433085 433771 434346
922.7714 434840 435297 435759 436255 436789 437341 437872 438342 438730 439048
927.5926 439336 439645 440004 440408 440827 441230 441613 441996 442406 442850
932.4138 443297 443697 444006 444215 444352 444471 444625 444849 445148 445499
937.2349 445859 446181 446432 446602 446716 446818 446947 447119 447318 447508
942.0561 447656 447746 447783 447781 447756 447721 447696 447708 447786 447944
946.8773 448175 448454 448747 449030 449295 449541 449767 449969 450137 450262
951.6984 450339 450363 450326 450228 450091 449963 449910 449993 450229 450585
956.5196 450976 451303 451489 451502 451368 451160 450970 450876 450920 451091
961.3408 451336 451586 451788 451922 452003 452064 452135 452235 452371 452546
966.1619 452761 453012 453288 453573 453865 454182 454559 455027 455588 456201
970.9831 456796 457307 457698 457978 458201 458441 458776 459268 459952 460827
975.8043 461852 462953 464044 465051 465934 466695 467365 467996 468648 469376
980.6254 470222 471191 472250 473329 474354 475286 476148 477015 477968 479055
985.4466 480252 481488 482679 483781 484811 485833 486917 488105 489384 490692
990.2678 491951 493104 494141 495099 496043 497032 498093 499210 500336 501422
995.0889 502430 503346 504178 504948 505686 506426 507192 507990 508799 509572
999.9101 510257 510829 511304 511744 512225 512803 513490 514238 514969 515601
1004.7313 516085 516421 516651 516833 517015 517213 517418 517614 517796
1009.0703 517982 518192 518428 518654 518797 518785 518580 518207 517745
1013.4094 517297 516936 516679 516483 516269 515971 515564 515083 514608
1017.7484 514229 514011 513967 514052 514182 514267 514239 514075 513794
1022.0875 513445 513082 512754 512490 512299 512168 512062 511931 511723
1026.4265 511402 510962 510438 509887 509371 508929 508564 508246 507937
1030.7656 507605 507249 506884 506534 506214 505917 505627 505321 504985
1035.1046 504616 504214 503778 503301 502776 502209 501616 501029 500472
1039.4437 499955 499469 498993 498515 498037 497572 497121 496663 496153
1043.7827 495547 494841 494078 493337 492687 492148 491674 491184 490611
1048.1218 489938 489210 488504 487890 487397 487010 486685 486365 485997
1052.4608 485543 484982 484314 483565 482783 482027 481348 480772 480284
1056.7999 479840 479385 478880 478313 477696 477045 476365 475650 474899
1061.1389 474137 473416 472788 472273 471843 471431 470970 470433 469841
1065.4780 469249 468708 468239 467834 467464 467106 466750 466399 466057
1069.8170 465729 465414 465102 464773 464393 463924 463340 462654 461918
1074.1561 461214 460629 460220 460001 459944 460004 460135 460309 460508
1078.4951 460721 460944 461180 461449 461783 462215 462757 463388 464065
1082.8342 464741 465394 466033 466682 467347 467997 468563 468977 469217
1087.1732 469335 469444 469667 470074 470652 471308 471923 472407 472735
1091.5123 472945 473110 473304 473576 473955 474453 475079 475831 476691
1095.8513 477629 478616 479639 480709 481844 483047 484284 485490 486593
1100.1904 487554 488383 489127 489842 490566 491312 492082 492885 493742
1104.5294 494662 495629 496598 497514 498349 499124 499904 500762 501738
1108.8685 502812 503911 504946 505860 506655 507393 508161 509029 510015
1113.2075 511080 512143 513124 513978 514712 515386 516096 516941 517993
1117.5466 519259 520673 522106 523416 524510 525402 526216 527132 528302
1121.8856 529769 531455 533194 534822 536242 537453 538521 539535 540560
1126.2247 541623 542724 543849 544988 546143 547326 548555 549842 551184
1130.5637 552562 553940 555279 556533 557648 558568 559244 559672 559921
1134.9028 560128 560453 561009 561802 562733 563651 564425 564998 565386
1139.2418 565632 565766 565789 565694 565509 565315 565233 565374 565785
1143.5809 566429 567200 567984 568711 569391 570097 570917 571899 573033
1147.9199 574272 575576 576961 578500 580299 582439 584942 587761 590807
1152.2590 593982 597211 600455 603695 606923 610122 613259 616290 619161
1156.5980 621823 624244 626422 628398 630245 632053 633894 635801 637761
1160.9371 639722 641620 643400 645032 646527 647941 649371 650928 652695
1165.2761 654681 656821 658999 661115 663129 665050 666901 668671 670315
1169.6152 671804 673163 674472 675798 677131 678360 679354 680072 680639
1173.9542 681299 682274 683614 685141 686530 687467 687777 687470 686686
1178.2933 685634 684564 683792 683704 684692 687007 690633 695251 700341
1182.6323 705363 709913 713767 716837 719104 720610 721504 722070 722683
1186.9714 723671 725168 727062 729069 730891 732363 733508 734489 735498
1191.3104 736676 738071 739657 741372 743162 745000 746877 748776 750646
1195.6495 752400 753963 755330 756613 758005 759695 761765 764137 766623
1199.9885 769023 771230 773258 775202 777160 779180 781245 783299 785290
1204.3276 787192 789016 790796 792577 794394 796265 798198 800185 802197
1208.6666 804160 805944 807393 808404 809023 809478 810116 811244 812977
1213.0057 815184 817573 819857 821881 823643 825209 826615 827841 828871
1217.3447 829777 830730 831915 833413 835141 836910 838550 840016 841368
1221.6838 842656 843807 844619 844907 844682 844245 844082 844635 846055
1226.0228 848134 850423 852473 854035 855125 855931 856665 857454 858322
1230.3619 859234 860160 861089 862029 862978 863917 864830 865717 866603
1234.7009 867526 868521 869598 870742 871921 873096 874223 875270 876233
1239.0400 877158 878142 879282 880592 881941 883066 883710 883795 883540
1243.3790 883411 883907 885303 887506 890100 892562 894500 895787 896527
1247.7181 896930 897170 897319 897368 897274 897004 896536 895842 894883
1252.0571 893624 892062 890219 888112 885703 882909 879678 876086 872359
1256.3962 868745 865290 861689 857392 851977 845601 839201 834246 832106
1260.7352 833402 837707 843786 850225 856058 861036 865415 869443 872892
1265.0743 874992 874861 872242 868084 864502 863952 867946 876010 885595
1269.4133 893134 895754 892674 885495 877231 870717 867351 866812 867744
1273.7524 868795 869358 869655 870332 871949 874697 878410 882753 887399
1278.0914 892138 896900 901751 906854 912386 918421 924829 931274 937346
1282.4305 942759 947498 951782 955833 959572 962502 963913 963361 961121
1286.7695 958270 956272 956275 958547 962426 966792 970717 973864 976438
1291.1086 978817 981205 983543 985639 987333 988526 989112 988965 988066
1295.4476 986686 985417 984948 985704 987593 990054 992384 994094 995082
1299.7867 995555 995807 996044 996326 996609 996809 996847 996690 996382
1304.1257 996033 995719 995354 994631 993171 990828 987976 985527 984574
1308.4648 985784 988843 992293 993939 991716 984687 973691 961267 950767
1312.8038 944994 944995 949647 956246 961772 964076 962398 957084 948988
1317.1429 939121 928794 919926 914951 916028 923934 937352 953181 967787
1321.4819 978504 984546 986881 987317 987448 988036 989035 989999 990536
1325.8210 990524 990079 989381 988523 987497 986289 985017 983953 983376
1330.1600 983340 983576 983680 983496 983323 983653 984478 984689 982200
1334.4991 974960 962252 945270 926349 907246 887776 866080 840676 813045
1338.8381 788753 775878 781255 806628 847106 892965 933819 962780 978405
1343.1772 983772 983767 982472 981957 982542 983658 984469 984077 981694
1347.5162 977061 970915 964975 961251 961044 964344 969971 976182 981200
1351.8553 983431 981642 975451 965967 955906 948640 946536 949673 955939
1356.1943 962444 967131 969375 969298 966634 960168 948105 928841 901566
1360.5334 866695 826536 786176 753628 738123 746527 779554 830278 886264
1364.8724 934347 965384 976543 970588 953490 932158 913097 901621 900947
1369.2115 911156 928702 947054 958426 955911 935446 897323 847060 795056
1373.5505 754329 736353 746400 780829 828216 874164 907390 923839 926831
1377.8896 923728 921496 923749 930392 939181 947627 954074 957843 959061
1382.2286 958602 957900 958053 958201 954238 939463 907940 859318 802037
1386.5677 752001 726233 734497 773860 829845 883840 922300 942081 948822
1390.9067 950016 947881 937056 908643 857795 789727 720054 668814 651197
1395.2458 669830 712752 758421 785602 783416 756458 722222 702107 710869
1399.5848 750192 809459 872275 924080 956403 966584 955356 925614 883456
1403.9240 839484 807368 798860 817909 858057 905417 945567 970005 978373
1408.2629 975926 968898 961188 953951 947264 941834 939387 941735 949419
1412.6021 960787 971985 977954 974239 958837 932900 899404 860308 814358
1416.9410 757983 689804 616158 553192 522391 540561 609506 711862 816519
1421.2802 891572 918253 898601 853074 809802 791412 806157 847113 898481
1425.6191 944339 974643 986021 978881 954652 915938 868989 825057 797567
1429.9583 795653 818374 854514 889033 911863 922372 925835 924771 912698
1434.2972 876597 807601 712340 615708 551354 544948 600635 699159 808347
1438.6364 898921 956156 981879 988018 987447 987804 990484 993361 994258
1442.9753 992950 990966 989721 988170 981585 962892 926831 875051 818682
1447.3145 775481 761840 783788 832642 888585 930508 946344 937866 917522
1451.6534 899799 892468 892396 887487 862993 808719 723882 617929 507468
1455.9926 411007 343898 315340 327904 378588 460043 561467 669811 772046
1460.3315 857978 921842 961301 974653 959232 913567 842642 761908 695245
1464.6707 665903 685116 745841 826271 901225 954091 981908 991283 989140
1469.0096 975303 941851 879245 784988 669398 554969 469076 433025 452405
1473.3488 513743 589989 652996 686880 694944 696107 712877 758049 827779
1477.6877 904411 966343 998651 998887 976201 945763 922038 913905 922949
1482.0269 944747 971839 996610 1012673 1014683 998064 960266 903495 836444
1486.3658 772084 721297 686230 658940 627746 587622 546889 524492 539064
1490.7050 597295 689510 794571 889365 956067 984120 969339 914147 829612
1495.0439 735680 655866 607492 593754 604048 623003 641581 661773 691694
1499.3831 735853 789147 839478 876261 897093 906713 909223 900462 867482
1503.7220 796457 683705 541951 397296 278666 206277 185644 209442 264401
1508.0612 337924 420629 504875 582469 644827 686172 707226 715937 723767
1512.4001 739262 762658 784750 790772 767541 710683 628828 542572 477748
1516.7393 454856 478958 535296 593961 622546 600998 531217 436458 350964
1521.0782 305099 313055 368290 448015 524044 574886 593609 588148 574510
1525.4174 567164 572391 588121 609236 633562 663732 703746 753332 804694
1529.7563 844158 857517 835857 779184 697114 607129 530833 488451 492539
1534.0955 543085 626437 718874 793361 826760 805437 728596 609101 471091
1538.4344 343579 251137 205448 202530 227625 264733 304413 344930 387295
1542.7736 429619 466392 493515 514396 540920 587080 659003 748345 833890
1547.1125 890790 902190 867200 801769 732736 687718 684403 722850 784141
1551.4517 837248 852641 816995 741064 655167 593390 574809 592691 618292
1555.7906 617009 567108 470205 348627 233219 150236 114506 130144 194683
1560.1298 301496 438795 587817 724235 824352 873646 872888 838198 794782
1564.4688 767269 770636 804847 854747 895339 901360 858412 771247 664616
1568.8079 574674 533829 556372 632720 735565 833996 906777 947012 956927
1573.1469 938756 890141 808205 698832 582726 491597 455084 486174 574498
1577.4860 691731 805459 892934 947341 974910 986922 992540 996067 998293
1581.8250 999154 999240 999585 1000768 1002520 1004138 1005155 1005617 1005822
1586.1641 1005855 1005353 1003646 1000123 994593 987492 979911 973394 969486
1590.5032 969037 971527 974839 975842 971780 961850 948043 934586 926118
1594.8422 925572 932998 945939 960943 975104 986712 994950 999315 999451
1599.1813 995428 987968 978168 966962 954971 943092 933280 928467 931086
1603.5203 940978 954356 965058 967661 960427 945981 929227 914116 901755
1607.8594 891229 882208 876891 879290 892119 913759 938037 957497 967849
1612.1984 969920 966992 959144 939272 895178 818003 712108 599097 511532
1616.5375 478475 510977 596400 705144 805444 876881 914840 924862 912934
1620.8765 879865 823865 748483 668556 608059 589720 622444 694635 778091
1625.2156 840731 861335 838607 790363 743969 723303 738627 783750 841109
1629.5546 891556 923510 936595 938011 934217 923574 895297 836077 740533
1633.8937 618597 494542 397620 349662 356773 409258 488576 576240 659520
1638.2327 732087 791359 835846 864603 878508 881474 879795 879329 881841
1642.5718 882722 871877 838010 774567 684314 579897 479883 402406 359842
1646.9108 356850 391449 456802 541630 629492 699294 729264 704062 621825
1651.2499 497066 357377 235208 158336 142672 189360 286182 412145 543687
1655.5889 660811 751397 812498 848544 867707 878077 884820 888596 885333
1659.9280 867838 829681 770471 699721 635895 599565 603677 646810 713935
1664.2670 784213 840359 873369 880654 861249 813838 739927 648831 558508
1668.6061 489450 455140 456206 482798 522889 569244 619249 668587 705801
1672.9451 714572 683914 619068 543982 491815 488475 539242 626370 718385
1677.2842 784955 809197 792224 749574 702631 669005 655187 653826 646891
1681.6232 614194 544187 442056 330480 241762 204566 231678 314768 428452
1685.9623 541133 627099 674441 686235 675864 659739 650904 655753 674191
1690.3013 702063 733979 764872 789674 801912 793116 754781 683031 583803
1694.6404 474956 382463 330937 332325 378593 442972 490341 492617 442063
1698.9794 355930 269621 221113 233837 306353 413878 520585 595865 625968
1703.3185 615788 581807 542139 509959 492650 494221 516757 558965 613698
1707.6575 668155 708476 726562 724523 713328 706131 710295 722939 732483
1711.9966 725148 692722 637441 571416 510717 467087 441784 425414 404417
1716.3356 370753 328817 294843 288648 322555 394210 487365 579557 651671
1720.6747 694184 707964 701043 684275 667862 659107 661047 672135 687504
1725.0137 701688 711355 716113 716731 712339 699378 673913 636018 592675
1729.3528 555954 536474 535847 543407 540347 509848 447591 366310 291270
1733.6918 248891 254796 307630 391205 482519 560395 610594 626853 610152
1738.0309 568403 516206 472296 453319 466053 503067 545823 574504 578840
1742.3699 563058 541958 531072 537512 556888 577129 585786 576238 550034
1746.7090 515229 482273 459336 448879 446998 446213 440635 430613 423682
1751.0480 430725 459459 509313 570813 629543 671983 689993 682410 654265
1755.3871 614955 576124 549142 542126 557103 588610 624752 650856 654701
1759.7261 631558 586950 535512 495659 481951 498802 539020 588141 631844
1764.0652 661750 676289 677188 665483 640839 604621 563344 528293 510131
1768.4042 511677 524267 531089 516241 474218 414070 355674 320208 320125
1772.7433 353879 407784 463480 506670 532556 545632 554753 566882 583147
1777.0823 598959 607360 603193 585849 559683 532507 512990 507696 518459
1781.4214 541067 566326 583700 586202 573934 554069 537066 531272 539085
1785.7604 556659 576811 592873 601139 600941 593075 578053 555376 524117
1790.0995 484461 439393 395568 362391 348948 359746 391514 433509 472022
1794.4385 496976 506642 507280 507824 513254 521314 524765 517289 498510
1798.7776 474527 453917 442518 440815 445352 452371 460533 470878 484658
1803.1166 501249 517829 530810 537698 538069 533366 526006 518425 512225
1807.4557 507498 502608 494904 482401 465582 448018 435013 430894 436643
1811.7947 449447 464383 476994 485003 488326 487831 484142 477372 467752
1816.1338 456338 445091 436188 431064 429780 431037 432777 433088 431030
1820.4728 426988 422263 417949 413716 407394 396018 378013 355249 333379
1824.8119 319745 319635 332917 353127 369823 373249 359001 330355 297055
1829.1509 271123 261695 271334 295486 325153 351242 368305 375892 377199
1833.4900 376216 375241 374121 371294 365628 357693 349725 344418 343397
1837.8290 346326 351136 355211 356761 355502 352129 346944 338703 324857
1842.1681 303450 275601 246690 224857 217209 225890 246581 270607 289442
1846.5071 298838 300143 298319 298330 302335 309200 316081 320566 321921
1850.8462 320951 319028 317166 315704 314515 313380 312196 310973 309713
1855.1852 308339 306694 304632 302126 299335 296577 294193 292378 291084
1859.5243 290066 289053 287924 286780 285852 285314 285099 284815 283817
1863.8633 281402 277044 270529 261911 251357 239039 225287 210975 197861
1868.2024 188464 185299 189725 201067 216612 232607 245752 254353 258569
1872.5414 259761 259479 258745 257902 256916 255723 254382 253000 251625
1876.8805 250212 248708 247124 245550 244105 242884 241919 241158 240457
1881.2195 239586 238302 236455 234060 231314 228537 226119 224459 223845
1885.5586 224215 224877 224477 221428 214782 205064 194480 186141 182653
1889.8976 184830 191334 199422 206268 210073 210399 207826 203385 198210
1894.2367 193445 190159 189078 190242 192887 195772 197780 198420 197898
1898.5757 196773 195519 194304 193075 191766 190409 189083 187805 186523
1902.9148 185201 183906 182767 181838 180988 179930 178366 176138 173282
1907.2538 169971 166455 163041 160111 158104 157383 158056 159840 162095
1911.5929 164032 165025 164873 163874 162620 161591 160736 159334 156295
1915.9319 150845 143220 134914 128218 125209 126716 131833 138271 143350
1920.2710 145106 143002 137972 131884 126735 123927 123857 125943 128993
1924.6100 131757 133394 133686 132921 131590 130098 128637 127236 125885
1928.9491 124595 123389 122241 121064 119758 118283 116692 115106 113643
1933.2881 112355 111217 110167 109154 108164 107208 106269 105295 104231
1937.6272 103088 101958 100918 99860 98399 95994 92301 87548 82642 78842 77132
1942.9304 77669 79681 81893 83222 83282 82433 81386 80703 80505 80533 80420
1948.2338 79959 79176 78232 77282 76385 75518 74634 73699 72699 71627 70486
1953.5370 69300 68127 67043 66100 65294 64548 63745 62778 61597 60228 58758
1958.8403 57299 55958 54816 53910 53229 52711 52259 51776 51199 50517 49742
1964.1436 48873 47868 46677 45308 43885 42639 41812 41532 41739 42203 42642
1969.4469 42853 42774 42467 42040 41566 41063 40515 39916 39291 38691 38158
1974.7501 37708 37326 36984 36679 36456 36409 36649 37253 38214 39429 40737
1980.0535 41979 43064 43984 44790 45542 46268 46961 47606 48203 48767 49291
1985.3567 49724 49969 49952 49693 49346 49136 49226 49581 49944 49964 49411
1990.6600 48363 47209 46475 46542 47453 48905 50425 51615 52305 52561 52558
1995.9633 52453 52306 52107 51828 51474 51083 50698 50340 50004 49667 49306
2001.2666 48900 48436 47903 47299 46626 45884 45065 44159 43165 42121 41110
2006.5698 40239 39608 39258 39155 39208 39311 39393 39431 39439 39439 39435
2011.8732 39419 39375 39295 39170 38977 38676 38240 37683 37088 36587 36310
2017.1764 36322 36589 36990 37370 37603 37633 37484 37236 36982 36794 36699
2022.4797 36680 36694 36696 36660 36584 36486 36384 36290 36204 36123 36045
2027.7830 35982 35954 35978 36056 36170 36279 36347 36356 36328 36313 36369
2033.0863 36531 36801 37152 37552 37982 38448 38975 39593 40314 41115 41936
2038.3895 42689 43299 43741 44062 44364 44749 45265 45884 46537 47164 47755
2043.6929 48342 48966 49638 50337 51035 51723 52412 53119 53859 54663 55617
2048.9961 56858 58534 60701 63249 65899 68292 70140 71338 71997 72372 72740
2054.2993 73293 74090 75069 76111 77097 77949 78642 79201 79670 80101 80535
2059.6028 80999 81514 82094 82734 83393 83985 84406 84585 84547 84433 84455
2064.9060 84801 85548 86621 87840 89006 89995 90784 91429 92015 92608 93243
2070.2092 93928 94652 95397 96135 96843 97517 98176 98860 99606 100426 101306
2075.5125 102212 103108 103969 104790 105585 106377 107198 108074 109017
2079.8516 110018 111042 112041 112964 113780 114485 115105 115681 116248
2084.1907 116823 117403 117972 118519 119032 119495 119871 120119 120218
2088.5298 120194 120133 120141 120284 120542 120808 120933 120798 120360
2092.8687 119667 118820 117939 117127 116457 115972 115686 115593 115671
2097.2078 115904 116277 116772 117351 117947 118478 118881 119145 119319
2101.5469 119485 119718 120046 120446 120865 121252 121586 121871 122130
2105.8860 122387 122663 122974 123328 123721 124126 124503 124814 125046
2110.2249 125228 125412 125647 125946 126276 126590 126859 127094 127338
2114.5640 127626 127947 128239 128419 128430 128274 128004 127693 127388
2118.9031 127087 126750 126322 125761 125051 124204 123246 122215 121149
2123.2422 120081 119033 118003 116963 115864 114656 113301 111796 110170
2127.5811 108469 106739 105001 103247 101444 99553 97546 95417 93185 90890
2132.4023 88584 86326 84166 82143 80278 78577 77031 75623 74323 73096 71908
2137.7056 70742 69603 68519 67517 66599 65733 64864 63939 62935 61870 60783
2143.0088 59710 58672 57666 56680 55703 54731 53767 52818 51897 51018 50194
2148.3123 49424 48690 47959 47201 46398 45553 44675 43773 42841 41857 40799
2153.6155 39658 38447 37197 35943 34707 33482 32246 30993 29764 28666 27846
2158.9187 27436 27496 27980 28761 29681 30619 31521 32385 33230 34053 34830
2164.2219 35536 36169 36769 37401 38122 38958 39881 40828 41715 42469 43051
2169.5254 43463 43750 43981 44221 44506 44822 45116 45314 45365 45264 45063
2174.8286 44852 44727 44756 44963 45325 45787 46271 46700 47006 47152 47134
2180.1318 46988 46784 46603 46524 46609 46885 47342 47933 48587 49233 49823
2185.4351 50352 50851 51362 51911 52490 53069 53615 54114 54577 55021 55452
2190.7385 55863 56238 56576 56900 57249 57657 58142 58693 59276 59852 60387
2196.0417 60863 61282 61659 62019 62382 62756 63133 63502 63861 64221 64603
2201.3450 65025 65483 65948 66382 66761 67089 67394 67711 68058 68425 68785
2206.6482 69120 69434 69751 70096 70471 70853 71213 71537 71842 72162 72528
2211.9517 72943 73381 73807 74199 74567 74944 75368 75858 76406 76974 77513
2217.2549 77982 78367 78689 78990 79316 79690 80112 80564 81035 81530 82068
2222.5581 82655 83274 83881 84431 84908 85334 85759 86231 86767 87346 87930
2227.8613 88488 89021 89559 90146 90810 91550 92330 93093 93789 94392 94921
2233.1648 95425 95967 96590 97296 98049 98793 99489 100138 100778 101458
2237.9858 102202 102988 103762 104468 105088 105653 106222 106847 107544
2242.3250 108285 109025 109727 110382 111011 111647 112318 113037 113797
2246.6641 114576 115343 116071 116742 117361 117952 118537 119127 119708
2251.0029 120253 120735 121149 121519 121884 122290 122775 123366 124072
2255.3420 124889 125794 126757 127750 128757 129777 130809 131842 132849
2259.6812 133797 134670 135477 136254 137042 137860 138697 139518 140291
2264.0203 141012 141719 142476 143349 144376 145546 146811 148107 149381
2268.3591 150606 151788 152954 154144 155405 156777 158281 159907 161611
2272.6982 163334 165026 166676 168315 169995 171764 173633 175577 177562
2277.0374 179567 181607 183726 185976 188387 190955 193647 196422 199242
2281.3765 202084 204932 207768 210564 213288 215921 218466 220948 223403
2285.7153 225843 228251 230579 232780 234841 236798 238723 240684 242711
2290.0544 244771 246790 248682 250388 251894 253234 254465 255643 256796
2294.3936 257913 258957 259888 260689 261376 261976 262504 262945 263264
2298.7327 263445 263511 263530 263574 263677 263823 263955 264007 263923
2303.0715 263651 263121 262246 260956 259239 257175 254918 252634 250430
2307.4106 248320 246239 244102 241861 239529 237163 234828 232582 230481
2311.7498 228602 227052 225925 225242 224896 224648 224197 223270 221706
2316.0889 219476 216649 213322 209587 205524 201248 196940 192838 189185
2320.4277 186140 183747 181958 180725 180098 180223 181241 183111 185479
2324.7668 187706 189061 189004 187388 184468 180725 176634 172513 168527
2329.1060 164786 161416 158556 156286 154603 153462 152841 152734 153036
2333.4451 153423 153373 152395 150332 147541 144758 142701 141671 141398
2337.7839 141243 140600 139242 137405 135599 134296 133700 133713 134090
2342.1230 134647 135414 136613 138545 141484 145733 151821 160645 173261
2346.4622 190218 210694 232010 250039 260547 260875 251067 233783 213060
2350.8013 192642 174774 159978 147648 136911 127197 118332 110341 103244 97007
2355.6223 91590 86984 83172 80073 77538 75422 73654 72270 71348 70932 70976
2360.9255 71358 71939 72632 73427 74387 75598 77123 78978 81138 83572 86274
2366.2290 89267 92591 96279 100344 104791 109621 114845 120475 126515 132957
2371.0500 139794 147022 154647 162674 171098 179900 189049 198511 208255
2375.3892 218260 228515 239016 249756 260712 271838 283074 294355 305622
2379.7283 316824 327895 338737 349211 359145 368369 376747 384198 390698
2384.0671 396262 400927 404737 407744 410013 411619 412641 413154 413226
2388.4063 412921 412303 411439 410388 409193 407874 406438 404898 403276
2392.7454 401609 399926 398245 396565 394885 393210 391559 389953 388391
2397.0845 386848 385280 383650 381952 380223 378525 376916 375418 374006
2401.4233 372627 371223 369760 368229 366639 365001 363320 361611 359911
2405.7625 358283 356801 355519 354444 353537 352729 351955 351177 350388
2410.1016 349602 348836 348100 347386 346679 345961 345218 344444 343637
2414.4407 342798 341918 340985 339989 338944 337887 336879 335974 335194
2418.7795 334515 333878 333216 332486 331682 330828 329965 329130 328351
2423.1187 327643 327009 326437 325896 325344 324740 324062 323316 322537
2427.4578 321776 321074 320456 319915 319428 318966 318515 318078 317667
2431.7969 317287 316919 316530 316086 315584 315059 314564 314141 313788
2436.1357 313459 313098 312674 312209 311758 311379 311098 310899 310753
2440.4749 310636 310551 310511 310521 310553 310564 310510 310375 310177
2444.8140 309958 309764 309627 309560 309557 309607 309696 309815 309958
2449.1531 310123 310308 310514 310736 310968 311200 311418 311608 311767
2453.4919 311905 312052 312239 312480 312764 313055 313312 313507 313639
2457.8311 313727 313796 313859 313916 313958 313970 313943 313866 313734
2462.1702 313551 313331 313097 312868 312646 312412 312143 311823 311460
2466.5093 311084 310731 310426 310172 309957 309763 309580 309408 309243
2470.8481 309074 308876 308620 308285 307873 307416 306964 306568 306256
2475.1873 306025 305843 305663 305447 305183 304886 304581 304292 304022
2479.5264 303755 303469 303148 302788 302399 301999 301604 301233 300908
2483.8655 300650 300472 300368 300313 300267 300190 300056 299860 299613
2488.2043 299340 299067 298822 298622 298467 298342 298217 298065 297871
2492.5435 297648 297428 297248 297134 297089 297090 297101 297082 297004
2496.8826 296857 296647 296402 296153 295931 295747 295594 295453 295309
2501.2217 295164 295036 294943 294889 294855 294804 294700 294530 294306
2505.5605 294060 293832 293652 293535 293476 293456 293442 293398 293290
2509.8997 293102 292843 292546 292264 292047 291932 291928 292013 292143
2514.2388 292266 292337 292332 292251 292109 291935 291755 291592 291454
2518.5779 291337 291226 291101 290949 290778 290616 290507 290487 290567
2522.9167 290721 290896 291033 291095 291078 291010 290928 290859 290805
2527.2559 290750 290675 290575 290466 290379 290338 290349 290391 290428
2531.5950 290429 290384 290313 290256 290252 290327 290479 290680 290884
2535.9341 291041 291114 291093 291007 290919 290897 290986 291176 291410
2540.2729 291614 291738 291793 291836 291935 292123 292375 292627 292816
2544.6121 292919 292965 293015 293127 293323 293591 293896 294205 294505
2548.9512 294798 295098 295412 295737 296055 296342 296577 296756 296898
2553.2903 297042 297236 297512 297874 298297 298736 299155 299533 299869
2557.6292 300173 300454 300718 300979 301261 301593 302000 302483 303015
2561.9683 303552 304053 304495 304884 305249 305625 306046 306528 307068
2566.3074 307639 308201 308712 309148 309516 309858 310232 310692 311257
2570.6465 311909 312602 313288 313943 314574 315211 315883 316598 317338
2574.9856 318068 318760 319404 320016 320622 321246 321900 322585 323295
2579.3245 324022 324764 325519 326291 327090 327929 328819 329751 330701
2583.6636 331635 332532 333394 334242 335101 335975 336851 337709 338553
2588.0027 339412 340335 341356 342474 343650 344827 345958 347027 348054
2592.3418 349077 350139 351270 352482 353764 355089 356423 357733 358995
2596.6807 360202 361365 362507 363659 364848 366081 367350 368637 369933
2601.0198 371244 372595 374006 375479 376994 378524 380054 381594 383170
2605.3589 384799 386472 388162 389844 391516 393204 394938 396728 398543
2609.6980 400333 402055 403707 405335 407005 408768 410631 412559 414507
2614.0369 416444 418374 420325 422326 424384 426479 428585 430686 432790
2618.3760 434924 437110 439349 441624 443902 446166 448421 450696 453026
2622.7151 455431 457907 460424 462948 465458 467951 470438 472941 475480
2627.0542 478073 480730 483447 486206 488977 491729 494451 497156 499882
2631.3931 502668 505539 508491 511496 514516 517519 520493 523448 526415
2635.7322 529431 532523 535699 538939 542208 545469 548701 551902 555087
2640.0713 558277 561488 564732 568009 571315 574637 577963 581289 584616
2644.4104 587952 591303 594670 598054 601462 604911 608422 612006 615647
2648.7493 619311 622949 626526 630031 633473 636874 640255 643624 646981
2653.0884 650315 653612 656858 660049 663190 666292 669363 672396 675368
2657.4275 678247 681006 683636 686143 688545 690858 693081 695200 697193
2661.7666 699033 700690 702134 703332 704261 704920 705345 705597 705746
2666.1055 705836 705877 705844 705708 705461 705125 704740 704343 703951
2670.4446 703568 703200 702863 702568 702306 702032 701683 701212 700629
2674.7837 700003 699428 698970 698632 698350 698037 697637 697153 696643
2679.1228 696180 695805 695503 695216 694871 694412 693826 693138 692399
2683.4617 691664 690972 690337 689745 689170 688589 687997 687410 686856
2687.8008 686355 685903 685471 685017 684508 683939 683330 682722 682157
2692.1399 681660 681236 680867 680523 680168 679774 679324 678816 678265
2696.4790 677699 677143 676619 676130 675670 675226 674786 674348 673914
2700.8179 673482 673040 672569 672051 671481 670871 670248 669641 669070
2705.1570 668536 668030 667532 667030 666523 666022 665545 665103 664693
2709.4961 664297 663892 663468 663034 662610 662215 661848 661483 661082
2713.8352 660613 660065 659455 658817 658195 657631 657147 656737 656355
2718.1741 655931 655408 654776 654091 653450 652937 652570 652284 651968
2722.5132 651543 651014 650477 650063 649851 649818 649837 649739 649396
2726.8523 648772 647924 646964 646001 645105 644301 643589 642964 642426
2731.1914 641974 641593 641245 640877 640440 639912 639318 638719 638194
2735.5303 637800 637547 637397 637275 637107 636839 636458 635981 635440
2739.8694 634868 634287 633705 633123 632539 631946 631336 630700 630039
2744.2085 629374 628748 628213 627806 627524 627320 627129 626902 626628
2748.5476 626329 626026 625709 625333 624847 624234 623524 622784 622075
2752.8865 621426 620831 620271 619737 619236 618784 618382 618015 617651
2757.2256 617265 616837 616366 615853 615308 614748 614192 613662 613173
2761.5647 612726 612304 611881 611432 610948 610436 609914 609399 608901
2765.9038 608424 607968 607535 607126 606737 606349 605935 605470 604943
2770.2427 604359 603737 603103 602493 601954 601532 601253 601100 600998
2774.5818 600837 600521 600011 599345 598618 597925 597329 596834 596407
2778.9209 596000 595578 595121 594625 594095 593538 592968 592403 591864
2783.2600 591362 590893 590431 589940 589395 588810 588242 587775 587476
2787.5989 587346 587317 587276 587132 586853 586472 586038 585567 585021
2791.9380 584344 583513 582573 581622 580759 580031 579422 578891 578424
2796.2771 578047 577811 577733 577762 577777 577639 577256 576620 575816
2800.6162 574975 574225 573638 573214 572891 572577 572192 571702 571121
2804.9551 570492 569857 569238 568632 568044 567497 567043 566727 566559
2809.2942 566485 566405 566211 565834 565272 564582 563851 563159 562552
2813.6333 562038 561591 561167 560724 560234 559694 559121 558549 558008
2817.9724 557515 557067 556642 556217 555773 555306 554826 554351 553898
2822.3113 553473 553065 552649 552197 551691 551131 550538 549948 549393
2826.6504 548894 548450 548048 547666 547284 546894 546491 546070 545618
2830.9895 545116 544549 543925 543278 542656 542089 541564 541024 540400
2835.3286 539662 538850 538077 537468 537099 536947 536892 536768 536433
2839.6675 535822 534959 533922 532809 531690 530598 529530 528459 527355
2844.0066 526197 524995 523803 522707 521800 521133 520687 520361 520016
2848.3457 519533 518870 518077 517267 516559 516026 515666 515412 515174
2852.6848 514882 514515 514103 513703 513362 513086 512842 512587 512302
2857.0237 512017 511801 511717 511778 511926 512057 512072 511921 511622
2861.3628 511240 510839 510457 510094 509740 509395 509078 508814 508605
2865.7019 508415 508181 507841 507366 506775 506112 505426 504743 504078
2870.0410 503455 502926 502561 502412 502477 502674 502871 502935 502780
2874.3799 502398 501844 501203 500549 499921 499321 498728 498123 497505
2878.7190 496901 496349 495874 495473 495112 494743 494330 493867 493371
2883.0581 492873 492393 491938 491511 491116 490759 490438 490133 489814
2887.3972 489450 489029 488558 488052 487522 486968 486375 485729 485026
2891.7361 484268 483478 482691 481959 481336 480860 480528 480290 480065
2896.0752 479773 479367 478838 478212 477525 476807 476072 475330 474594
2900.4143 473888 473245 472702 472285 471994 471784 471574 471265 470784
2904.7534 470113 469301 468435 467599 466837 466149 465505 464877 464251
2909.0923 463617 462956 462239 461445 460578 459681 458813 458012 457265
2913.4314 456511 455673 454713 453667 452633 451727 451021 450504 450089
2917.7705 449660 449129 448481 447767 447065 446436 445893 445409 444947
2922.1096 444487 444045 443651 443332 443083 442865 442622 442311 441926
2926.4485 441517 441176 441009 441084 441398 441855 442298 442564 442546
2930.7876 442234 441710 441112 440569 440166 439920 439796 439734 439679
2935.1267 439598 439484 439347 439203 439068 438951 438855 438772 438682
2939.4658 438554 438363 438111 437844 437638 437562 437629 437772 437863
2943.8047 437783 437477 436990 436421 435865 435352 434834 434225 433457
2948.1438 432517 431460 430391 429432 428697 428258 428116 428187 428320
2952.4829 428351 428162 427736 427146 426517 425956 425514 425180 424919
2956.8220 424700 424509 424336 424155 423923 423604 423205 422791 422466
2961.1609 422320 422376 422564 422749 422791 422615 422241 421768 421321
2965.5000 420996 420827 420793 420843 420931 421034 421148 421272 421389
2969.8391 421457 421417 421216 420842 420344 419828 419425 419235 419273
2974.1782 419448 419597 419558 419246 418700 418063 417498 417108 416887
2978.5171 416752 416608 416422 416229 416089 416023 415978 415854 415576
2982.8562 415143 414632 414138 413702 413273 412746 412035 411154 410229
2987.1953 409439 408922 408697 408666 408679 408630 408508 408378 408309
2991.5344 408299 408261 408072 407654 407034 406341 405754 405418 405391
2995.8733 405624 405992 406341 406539 406505 406226 405743 405130 404471
3000.2124 403826 403215 402615 401983 401290 400555 399849 399273 398913
3004.5515 398806 398929 399202 399501 399670 399561 399084 398267 397260
3008.8906 396273 395455 394813 394229 393583 392885 392305 392061 392244
3013.2295 392715 393182 393381 393254 392966 392775 392842 393144 393530
3017.5686 393858 394092 394286 394489 394650 394634 394317 393696 392923
3021.9077 392221 391764 391575 391536 391474 391274 390935 390551 390244
3026.2468 390089 390087 390151 390106 389709 388712 386985 384648 382124
3030.5857 380030 378913 378991 380041 381530 382910 383885 384491 384958
3034.9248 385482 386068 386554 386750 386582 386142 385620 385191 384936
3039.2639 384841 384839 384860 384863 384829 384754 384641 384501 384358
3043.6030 384253 384219 384245 384240 384033 383420 382276 380652 378818
3047.9419 377204 376237 376153 376882 378061 379199 379897 380012 379681
3052.2810 379172 378678 378179 377479 376389 374934 373424 372331 372026
3056.6201 372564 373628 374693 375288 375222 374634 373881 373314 373083
3060.9592 373057 372905 372287 371063 369386 367639 366229 365390 365103
3065.2981 365184 365465 365917 366634 367691 369014 370352 371394 371925
3069.6372 371918 371510 370896 370236 369618 369076 368610 368204 367815
3073.9763 367399 366931 366431 365938 365467 364972 364369 363612 362753
3078.3154 361951 361395 361187 361282 361514 361704 361777 361796 361902
3082.6543 362201 362669 363145 363416 363328 362864 362146 361358 360669
3086.9934 360174 359892 359808 359896 360131 360460 360788 360993 360969
3091.3325 360672 360124 359361 358379 357122 355549 353746 351984 350652
3095.6716 350085 350370 351266 352301 352986 353037 352462 351498 350457
3100.0105 349585 348993 348688 348627 348768 349081 349521 350009 350424
3104.3496 350628 350527 350127 349561 349044 348779 348868 349261 349790
3108.6887 350249 350470 350371 349961 349329 348615 347959 347428 346956
3113.0278 346361 345453 344202 342818 341673 341079 341072 341370 341571
3117.3667 341444 341104 340922 341215 341947 342682 342829 342045 340489
3121.7058 338768 337592 337371 338001 338959 339631 339653 339081 338302
3126.0449 337784 337825 338437 339406 340457 341394 342133 342616 342724
3130.3840 342266 341103 339314 337270 335529 334582 334606 335378 336408
3134.7229 337212 337540 337448 337185 337009 337054 337301 337649 337986
3139.0620 338233 338338 338274 338031 337640 337164 336683 336261 335927
3143.4011 335681 335504 335381 335292 335211 335103 334927 334658 334288
3147.7402 333830 333308 332759 332237 331812 331559 331533 331735 332107
3152.0791 332538 332901 333098 333079 332854 332471 331996 331491 331005
3156.4182 330573 330217 329943 329741 329587 329453 329318 329179 329046
3160.7573 328930 328827 328718 328576 328384 328146 327886 327635 327412
3165.0964 327215 327029 326834 326613 326365 326102 325845 325618 325438
3169.4353 325303 325199 325099 324984 324841 324666 324463 324248 324049
3173.7744 323893 323766 323574 323147 322310 321014 319439 317980 317100
3178.1135 317100 317951 319304 320665 321647 322118 322183 322027 321751
3182.4526 321319 320641 319712 318689 317836 317395 317455 317911 318544
3186.7915 319131 319546 319770 319845 319811 319681 319456 319166 318883
3191.1306 318693 318643 318702 318772 318736 318514 318078 317431 316576
3195.4697 315516 314303 313077 312071 311525 311575 312173 313103 314082
3199.8088 314886 315417 315688 315765 315706 315552 315344 315144 315028
3204.1477 315055 315239 315534 315847 316043 315969 315486 314535 313206
3208.4868 311768 310610 310088 310340 311169 312096 312564 312218 311086
3212.8259 309574 308257 307596 307743 308519 309556 310480 311043 311152
3217.1650 310827 310166 309338 308572 308108 308112 308595 309403 310293
3221.5039 311053 311593 311946 312199 312401 312519 312457 312133 311548
3225.8430 310799 310035 309382 308883 308499 308163 307840 307557 307371
3230.1821 307321 307397 307575 307866 308330 309027 309917 310810 311425
3234.5212 311534 311116 310385 309683 309290 309284 309522 309758 309785
3238.8601 309542 309116 308684 308413 308375 308493 308539 308217 307322
3243.1992 305893 304283 303056 302737 303554 305317 307512 309556 311043
3247.5383 311853 312102 312009 311773 311530 311338 311164 310869 310240
3251.8774 309118 307548 305856 304548 304057 304497 305592 306833 307776
3256.2163 308255 308399 308462 308611 308838 309027 309095 309079 309113
3260.5554 309320 309712 310187 310586 310792 310778 310608 310388 310212
3264.8945 310129 310134 310187 310231 310218 310125 309968 309810 309754
3269.2336 309892 310228 310615 310765 310380 309335 307814 306261 305163
3273.5725 304777 304999 305475 305863 306065 306249 306656 307371 308232
3277.9116 308952 309350 309480 309575 309846 310315 310810 311112 311135
3282.2507 310990 310904 311067 311516 312133 312722 313102 313165 312892
3286.5898 312338 311619 310880 310241 309749 309361 308979 308530 308030
3290.9287 307594 307376 307490 307967 308744 309706 310709 311603 312249
3295.2678 312555 312525 312274 311998 311881 312010 312340 312733 313041
3299.6069 313168 313098 312869 312546 312196 311886 311678 311623 311742
3303.9460 312009 312350 312643 312730 312460 311750 310657 309410 308356
3308.2849 307832 308012 308802 309863 310759 311152 310953 310358 309739
3312.6240 309463 309723 310466 311444 312347 312950 313197 313186 313086
3316.9631 313036 313091 313223 313363 313450 313454 313372 313207 312955
3321.3022 312605 312159 311652 311166 310812 310682 310805 311118 311495
3325.6411 311809 311995 312082 312148 312267 312451 312657 312829 312945
3329.9802 313022 313078 313092 312996 312712 312212 311530 310733 309871
3334.3193 308960 308030 307189 306649 306658 307359 308670 310277 311754
3338.6584 312746 313114 312963 312547 312133 311895 311886 312059 312321
3342.9973 312572 312731 312754 312635 312400 312086 311719 311309 310870
3347.3364 310442 310103 309948 310052 310424 310990 311616 312156 312504
3351.6755 312617 312507 312198 311698 310995 310101 309097 308140 307414
3356.0146 307046 307039 307272 307573 307802 307890 307834 307655 307379
3360.3535 307049 306737 306509 306371 306216 305860 305150 304091 302888
3364.6926 301866 301307 301321 301819 302601 303485 304385 305290 306209
3369.0317 307109 307912 308539 308941 309112 309067 308824 308402 307843
3373.3708 307227 306666 306262 306071 306071 306177 306284 306314 306254
3377.7097 306152 306087 306124 306286 306542 306812 306987 306949 306593
3382.0488 305862 304787 303504 302238 301251 300754 300834 301418 302283
3386.3879 303143 303751 304002 303963 303805 303670 303526 303144 302217
3390.7271 300597 298485 296459 295246 295366 296817 299012 301005 301927
3395.0659 301384 299626 297412 295631 294905 295354 296627 298150 299425
3399.4050 300230 300618 300772 300836 300839 300730 300488 300180 299941
3403.7441 299879 299995 300175 300265 300161 299875 299519 299240 299142
3408.0833 299241 299460 299672 299760 299670 299435 299151 298927 298831
3412.4221 298864 298978 299099 299161 299119 298964 298718 298414 298047
3416.7612 297513 296592 295020 292657 289648 286479 283843 282367 282343
3421.1003 283625 285728 288077 290242 292027 293426 294482 295193 295511
3425.4395 295410 294962 294351 293805 293481 293394 293415 293355 293071
3429.7783 292546 291888 291265 290832 290669 290776 291087 291492 291873
3434.1174 292132 292224 292164 292010 291821 291637 291484 291391 291387
3438.4565 291445 291414 291009 289914 287980 285399 282743 280792 280190
3442.7957 281081 282906 284504 284537 282115 277328 271396 266278 263861
3447.1345 265116 269664 275995 282206 286844 289391 290207 290079 289718
3451.4736 289479 289394 289342 289219 288988 288659 288260 287831 287424
3455.8127 287086 286832 286639 286468 286295 286100 285826 285347 284490
3460.1519 283148 281405 279597 278231 277776 278418 279920 281671 282938
3464.4907 283201 282399 280961 279595 278945 279300 280501 282064 283447
3468.8298 284300 284580 284496 284336 284285 284310 284185 283631 282506
3473.1689 280933 279303 278125 277799 278421 279734 281238 282417 282936
3477.5081 282714 281834 280367 278267 275428 271897 268092 264813 262982
3481.8469 263200 265407 268870 272520 275432 277138 277619 277081 275749
3486.1860 273858 271790 270141 269562 270427 272559 275271 277701 279254
3490.5251 279842 279794 279553 279362 279149 278623 277480 275601 273156
3494.8643 270605 268576 267657 268139 269852 272183 274321 275576 275592
3499.2031 274315 271805 268069 263116 257207 251091 245961 243071 243204
3503.5422 246323 251627 257928 264081 269177 272502 273451 271648 267276
3507.8813 261341 255553 251731 251014 253362 257660 262363 266269 268956
3512.2205 270697 272031 273319 274581 275608 276188 276238 275782 274857
3516.5593 273485 271749 269908 268405 267673 267811 268318 268138 266097
3520.8984 261553 254917 247661 241742 238704 238942 241537 244747 246846
3525.2375 246868 244887 241811 238857 237042 236896 238433 241315 245053
3529.5767 249174 253303 257205 260779 264007 266845 269079 270259 269808
3533.9155 267350 263100 258053 253754 251674 252515 255861 260393 264564
3538.2546 267311 268397 268253 267486 266422 264928 262561 258875 253694
3542.5938 247229 240030 232828 226352 221180 217677 216037 216391 218879
3546.9329 223575 230263 238175 245909 251683 253920 251921 246284 238818
3551.2717 231944 227843 227732 231536 238045 245429 251893 256252 258239
3555.6108 258429 257783 257030 256235 254854 252265 248408 244035 240331
3559.9500 238156 237487 237467 237006 235406 232505 228278 222345 213925
3564.2891 202370 187940 172221 157858 147745 144111 147886 158509 174108
3568.6282 191994 209346 223956 234728 241716 245666 247407 247494 246266
3572.9670 244138 241739 239729 238457 237824 237488 237212 237012 236966
3577.3062 236917 236462 235308 233696 232412 232260 233367 234946 235783
3581.6453 235107 233098 230559 227970 224696 219108 209619 195956 179737
3585.9844 163957 151769 145372 145598 152146 163949 179280 195667 210090
3590.3232 219736 223067 220473 213987 206163 198891 192924 188292 185077
3594.6624 183764 184907 188451 193396 198145 201261 202083 200824 198249
3599.0015 195287 192839 191697 192435 195240 199833 205592 211767 217554
3603.3406 221979 223841 221995 215948 206318 194697 182942 172456 164046
3607.6794 158376 156372 158894 165732 174795 182461 185213 181604 173153
3612.0186 163545 156672 154834 158079 164746 172480 179013 182494 181669
3616.3577 176151 166716 155287 144468 136787 134011 136817 144781 156586
3620.6968 170323 183908 195544 204093 209193 211098 210368 207598 203186
3625.0356 197117 188787 177104 161101 140977 119003 99546 87846 87926 100652
3629.8569 123007 149026 172003 186961 192323 190143 184910 181477 183035
3634.1960 189959 199985 209573 215717 217300 215370 212315 210494 211100
3638.5349 213773 217017 219086 218848 216266 212378 208829 207150 208008
3642.8740 210686 213045 212113 205198 191144 171116 148403 127180 110750
3647.2131 100203 94282 90567 87277 84576 84579 90103 102963 122824 147114
3652.0342 171823 192598 205713 208859 201870 187235 169931 156125 150967
3656.3733 156441 170514 188230 204170 214897 220003 221416 221691 222510
3660.7124 224205 226213 227843 228728 228851 228390 227600 226741 225871
3665.0515 224534 221607 215578 205243 190385 172024 152111 133005 117145
3669.3904 106950 104601 111299 126131 145289 162509 171019 166296 148265
3673.7295 121763 94910 76100 70929 80304 100444 124662 146166 160673 167732
3678.5508 170220 172364 177413 186188 197124 207505 214962 218422 218238
3682.8896 215764 212707 210412 209122 207487 202836 192466 175490 154063
3687.2288 132900 117076 109395 109108 112901 117430 121559 126733 135359
3691.5679 148541 164876 181087 193875 201601 204749 205128 204608 204304
3695.9070 204545 205322 206658 208528 210462 211244 209122 202625 191630
3700.2458 178038 165502 158108 158526 166620 179367 192269 201532 205767
3704.5850 206185 205220 204507 203612 200393 192721 180300 165216 150771
3708.9241 139423 131397 125050 118741 112759 109725 113032 124384 142278
3713.2632 162573 180745 194181 202910 208447 211907 212996 210653 204651
3717.6021 196648 189615 185940 185645 186180 184095 177495 167540 157904
3721.9412 152528 153151 158245 163982 166546 164304 158555 152596 149858
3726.2803 152293 159772 170496 181819 190921 195230 192863 183313 168095
3730.6194 150699 135403 125308 120703 118972 116293 110152 100989 91921 86784
3735.4404 87964 95441 107420 121678 136447 150356 162001 170023 173858 174398
3740.2617 173573 172768 171215 165875 153387 132990 108352 86781 75967 80097
3745.0828 97568 121563 143057 154656 153408 141469 124541 108986 98983 95078
3749.9041 94801 94964 94252 94476 99547 112738 133959 158956 181128 194958
3754.7251 198890 195810 190845 187978 187763 187616 184379 177241 168931
3759.0642 164320 167455 179069 196199 213961 228056 236305 238495 235264
3763.4033 227335 215820 203083 192898 189138 193501 203836 214551 219239
3767.7422 214157 200471 183883 171818 169796 179001 196217 215898 232958
3772.0813 244725 251225 254113 255236 255767 256125 256276 255857 254008
3776.4204 249347 240529 227360 211721 197479 189086 189543 198880 214081
3780.7595 230396 243266 249826 249472 243584 234824 226331 220916 220307
3785.0984 224652 232539 241631 249654 255244 258249 259429 259844 260304
3789.4375 261099 262060 262826 263156 263119 262991 262842 262030 259044
3793.7766 252010 239813 223242 205386 190806 183687 185803 195331 207167
3798.1157 214731 212555 198582 175187 148453 125998 114278 116500 131891
3802.4546 156296 183559 207046 221066 222252 210808 191057 170543 157485
3806.7937 157475 171125 194048 219236 240380 254253 261059 263102 263009
3811.1328 262550 262235 261283 257720 248861 232534 208829 181320 156593
3815.4719 141804 141345 154446 175121 194510 204416 200350 182941 157413
3819.8108 131617 113400 108182 117440 138562 166016 193334 215070 228064
3824.1499 231770 227864 219510 210543 204653 204526 211033 222692 235772
3828.4890 245304 246953 239104 224089 207553 195835 192598 196761 203243
3832.8281 206239 202841 194457 185054 177733 172408 166432 157461 146008
3837.1670 135477 129724 130329 135867 143589 151772 160556 170694 181654
3841.5061 191114 196523 197423 196426 197866 205058 218194 234297 249049
3845.8452 259062 263152 262147 257777 251522 243974 234796 223088 207915
3850.1843 188820 166180 141310 116410 94417 78730 72607 78107 94895 119675
3855.0054 146963 171197 189165 201268 210693 220896 232990 244750 251927
3859.3445 251031 241755 227446 213303 203409 198486 195804 191332 182806
3863.6836 171754 163120 162561 172956 192173 213410 228002 229215 215190
3868.0225 189780 161103 138571 129514 136531 156460 181475 202169 211550
3872.3616 208164 196662 185324 181805 189488 206454 227325 246406 259930
3876.7007 266293 264937 255510 238355 215816 192821 175648 169252 174869
3881.0398 189439 207136 221844 229161 227223 216692 200483 183352 170960
3885.3787 168164 177091 196023 219884 242115 256934 260938 253655 237344
3889.7178 216420 196540 183201 179999 187265 201961 219141 234286 245169
3894.0569 252185 257048 260852 262839 260693 252178 237004 217680 198685
3898.3960 184377 176883 175246 176326 176821 175041 171372 167355 164328
3902.7349 162727 162472 163867 168034 176397 189563 206546 224933 241911
3907.0740 255403 264652 270068 272670 273564 273665 273568 273506 273404
3911.4131 273094 272582 272100 271754 270973 268315 262058 251459 237839
3915.7522 224560 215571 213270 217063 223698 229266 231591 231400 231506
3920.0911 234597 241172 248993 254341 254183 247877 237517 226914 219947
3924.4302 219094 224674 234879 246485 255999 260907 260533 256109 249935
3928.7693 244077 239368 235319 230960 225972 221298 218790 220135 225803
3933.1084 234702 244727 253774 260572 264893 267167 267941 267600 266473
3937.4473 265077 264123 264139 264922 265302 263531 258237 249418 238859
3941.7864 229615 224757 225981 232804 242731 252301 258502 259880 256871
3946.1255 251272 245221 240247 236891 234984 234264 234811 236975 240900
3950.4646 246081 251395 255639 258199 259344 259931 260737 261942 263101
3954.8035 263583 263082 261845 260509 259708 259755 260537 261591 262289
3959.1426 262050 260584 258094 255310 253257 252794 254179 256920 260052
3963.4817 262658 264304 265125 265548 265878 266063 265782 264770 263106
3967.8208 261267 259879 259347 259604 260152 260372 259895 258805 257536
3972.1597 256566 256113 256040 256032 255879 255666 255724 256392 257754
3976.4988 259550 261307 262584 263179 263160 262752 262168 261520 260845
3980.8379 260191 259676 259456 259632 260164 260871 261511 261916 262065
3985.1770 262071 262090 262198 262321 262256 261770 260729 259209 257511
3989.5159 256075 255319 255446 256335 257559 258552 258855 258324 257199
3993.8550 255991 255245 255295 256136 257459 258823 259855 260384 260457
3998.1941 260256 259978 259748 259597 259495
##END= 
