##TITLE= bkg
##JCAMP-DX= 4.24
##DATA TYPE= INFRARED SPECTRUM
##ORIGIN= JASCO
##OWNER= 
##DATE= 22/03/31
##TIME= 08:47:58
##SPECTROMETER/DATA SYSTEM= 
##RESOLUTION= 
##DELTAX=   0.48211674
##XUNITS= 1/CM
##YUNITS= ARBITRARY UNITS
##XFACTOR= 1.00000
##YFACTOR= 1E-005
##FIRSTX=   599.7532
##LASTX=  4000.1226
##NPOINTS=     7054
##FIRSTY=      1.12814
##MAXY=     10.04459
##MINY=      0.26790
##XYDATA= (X++(Y..Y))
599.7532 112814 112734 113216 114231 115522 116744 117640 118160 118441 118689
604.5744 119055 119569 120166 120749 121243 121620 121896 122122 122371 122709
609.3956 123170 123727 124312 124848 125297 125685 126076 126531 127051 127553
614.2167 127878 127841 127310 126295 125001 123818 123201 123498 124784 126810
619.0379 129099 131154 132667 133613 134185 134630 135079 135487 135689 135552
623.8591 135101 134556 134251 134479 135347 136715 138254 139604 140530 141020
628.6802 141253 141469 141820 142297 142755 143022 142998 142698 142212 141646
633.5014 141086 140599 140259 140139 140289 140685 141229 141773 142184 142390
638.3226 142393 142256 142076 141951 141952 142092 142316 142511 142548 142343
643.1437 141897 141304 140703 140212 139861 139559 139130 138404 137319 135997
647.9649 134713 133786 133434 133677 134345 135180 135954 136544 136933 137167
652.7861 137299 137375 137440 137545 137746 138079 138531 139024 139446 139715
657.6072 139854 140010 140392 141153 142297 143688 145134 146481 147648 148621
662.4284 149481 150470 151961 154147 156470 157158 153417 142590 123896 99759
667.2496 75678 58353 52867 60438 78001 99802 120020 134950 143735 147638
672.0707 148654 148391 147697 146879 146082 145470 145183 145229 145473 145730
676.8919 145882 145921 145915 145943 146040 146201 146395 146596 146808 147062
681.7131 147401 147852 148401 149007 149637 150290 150992 151755 152529 153201
686.5342 153651 153843 153895 154059 154630 155808 157605 159830 162177 164340
691.3554 166125 167492 168525 169375 170186 171054 172009 173020 174027 174983
696.1766 175900 176851 177942 179245 180744 182328 183850 185198 186350 187358
700.9977 188294 189183 189991 190656 191146 191496 191805 192199 192780 193580
705.8189 194553 195592 196575 197417 198102 198668 199170 199637 200056 200402
710.6401 200682 200962 201346 201925 202721 203662 204602 205370 205843 205999
715.4612 205946 205865 205891 205968 205796 204950 203158 200584 197915 196129
720.2824 196034 197841 201028 204593 207548 209354 210061 210132 210096 210278
725.1036 210722 211290 211823 212240 212550 212803 213043 213285 213515 213709
729.9247 213847 213934 214002 214101 214273 214517 214783 214993 215075 214995
734.7459 214766 214423 214003 213519 212969 212340 211627 210832 209965 209042
739.5671 208087 207130 206209 205344 204520 203674 202711 201542 200133 198524
744.3882 196816 195128 193547 192097 190756 189485 188264 187116 186097 185280
749.2094 184731 184491 184573 184965 185649 186601 187784 189137 190562 191950
754.0306 193221 194350 195364 196288 197099 197721 198095 198262 198405 198766
758.8517 199501 200538 201562 202157 202017 201114 199715 198244 197092 196480
763.6729 196425 196815 197495 198338 199267 200259 201351 202631 204217 206194
768.4941 208552 211165 213828 216343 218600 220616 222494 224348 226235 228124
773.3152 229922 231523 232856 233907 234717 235368 235954 236568 237279 238126
778.1364 239104 240168 241240 242226 243033 243598 243896 243950 243821 243591
782.9576 243339 243128 242989 242922 242902 242892 242864 242815 242770 242770
787.7787 242853 243028 243272 243536 243760 243892 243909 243816 243647 243448
792.5999 243258 243097 242956 242819 242675 242531 242399 242286 242178 242060
797.4211 241936 241844 241841 241966 242201 242476 242703 242831 242870 242874
802.2422 242903 242978 243077 243161 243216 243267 243364 243549 243817 244108
807.0634 244332 244411 244316 244079 243778 243504 243326 243283 243386 243627
811.8846 243977 244389 244791 245113 245319 245427 245506 245642 245885 246226
816.7057 246612 246978 247286 247533 247742 247938 248139 248362 248637 249001
821.5269 249487 250107 250839 251633 252433 253194 253899 254562 255220 255918
826.3481 256684 257520 258395 259255 260045 260732 261319 261851 262407 263076
831.1693 263922 264961 266150 267398 268607 269701 270647 271452 272143 272748
835.9904 273289 273789 274273 274768 275297 275872 276497 277164 277860 278558
840.8116 279224 279823 280330 280740 281065 281333 281585 281868 282238 282734
845.6328 283363 284088 284847 285587 286311 287074 287952 288981 290124 291281
850.4539 292344 293257 294034 294741 295452 296208 297020 297875 298757 299642
855.2751 300499 301288 301982 302587 303145 303714 304338 305027 305764 306534
860.0963 307340 308205 309147 310155 311190 312198 313140 314008 314812 315572
864.9174 316301 317019 317761 318582 319538 320649 321879 323137 324316 325350
869.7386 326245 327078 327954 328955 330102 331363 332681 334009 335320 336602
874.5598 337844 339033 340166 341266 342375 343539 344785 346105 347472 348855
879.3809 350236 351608 352968 354312 355639 356964 358318 359737 361239 362803
884.2021 364368 365851 367181 368329 369323 370241 371179 372215 373382 374667
889.0233 376030 377433 378856 380293 381734 383145 384476 385686 386767 387755
893.8444 388705 389658 390624 391590 392556 393552 394639 395864 397221 398641
898.6656 400024 401292 402430 403481 404507 405545 406590 407617 408607 409573
903.4868 410543 411537 412556 413584 414613 415648 416704 417785 418877 419956
908.3079 420998 421991 422931 423821 424667 425494 426348 427276 428296 429383
913.1291 430470 431498 432449 433364 434305 435308 436348 437353 438252 439019
917.9503 439700 440382 441151 442042 443019 443990 444841 445492 445938 446263
922.7714 446614 447137 447897 448845 449838 450713 451377 451842 452204 452562
927.5926 452959 453372 453759 454120 454524 455063 455782 456627 457453 458096
932.4138 458455 458544 458473 458389 458412 458592 458911 459307 459704 460035
937.2349 460254 460346 460321 460218 460089 459988 459961 460038 460222 460481
942.0561 460760 460991 461125 461149 461087 460983 460875 460783 460707 460640
946.8773 460573 460500 460418 460327 460237 460166 460124 460093 460037 459916
951.6984 459730 459530 459388 459353 459401 459444 459390 459199 458921 458655
956.5196 458484 458421 458411 458375 458275 458135 458020 457981 458015 458067
961.3408 458061 457954 457758 457525 457317 457164 457063 456997 456970 457021
966.1619 457213 457597 458173 458881 459625 460317 460905 461390 461810 462208
970.9831 462612 463023 463423 463796 464144 464502 464929 465479 466161 466929
975.8043 467693 468368 468930 469430 469965 470624 471430 472337 473262 474137
980.6254 474944 475717 476513 477371 478298 479261 480212 481114 481964 482796
985.4466 483674 484654 485760 486973 488242 489513 490747 491928 493045 494087
990.2678 495049 495943 496811 497713 498696 499762 500863 501917 502848 503619
995.0889 504249 504796 505336 505929 506602 507344 508109 508842 509500 510069
999.9101 510565 511020 511464 511907 512346 512771 513176 513555 513882 514103
1004.7313 514143 513949 513541 513038 512636 512546 512908 513735 514918
1009.0703 516265 517566 518651 519410 519803 519854 519639 519262 518820
1013.4094 518371 517924 517452 516927 516355 515773 515234 514768 514370
1017.7484 514010 513657 513307 512979 512702 512490 512322 512151 511919
1022.0875 511585 511141 510608 510022 509415 508815 508243 507723 507275
1026.4265 506906 506591 506285 505944 505548 505114 504683 504281 503898
1030.7656 503486 502992 502384 501678 500919 500164 499459 498829 498278
1035.1046 497801 497376 496977 496567 496111 495579 494946 494198 493329
1039.4437 492357 491330 490313 489369 488528 487770 487043 486292 485491
1043.7827 484654 483805 482958 482094 481179 480196 479172 478176 477283
1048.1218 476544 475955 475468 475015 474539 474006 473413 472774 472120
1052.4608 471483 470897 470389 469969 469636 469374 469163 468979 468791
1056.7999 468570 468286 467929 467514 467079 466668 466301 465956 465577
1061.1389 465103 464508 463824 463124 462490 461959 461514 461099 460662
1065.4780 460189 459703 459237 458799 458367 457902 457383 456824 456259
1069.8170 455717 455200 454678 454113 453474 452749 451941 451062 450134
1074.1561 449207 448353 447657 447179 446921 446819 446757 446616 446322
1078.4951 445877 445356 444883 444578 444519 444722 445146 445705 446306
1082.8342 446875 447376 447827 448286 448828 449501 450308 451202 452120
1087.1732 453024 453919 454849 455855 456949 458101 459264 460407 461530
1091.5123 462658 463823 465040 466304 467596 468889 470152 471353 472464
1095.8513 473472 474390 475248 476091 476949 477831 478718 479577 480382
1100.1904 481123 481812 482477 483137 483798 484450 485070 485646 486175
1104.5294 486674 487173 487704 488300 488985 489760 490598 491442 492222
1108.8685 492876 493382 493764 494087 494436 494876 495436 496098 496805
1113.2075 497490 498096 498601 499013 499363 499692 500031 500407 500840
1117.5466 501338 501892 502479 503066 503631 504185 504768 505431 506205
1121.8856 507081 508014 508938 509804 510593 511328 512057 512832 513688
1126.2247 514626 515616 516622 517631 518672 519818 521145 522697 524463
1130.5637 526380 528367 530353 532288 534139 535884 537518 539072 540628
1134.9028 542302 544203 546384 548815 551396 553993 556486 558783 560826
1139.2418 562577 564018 565173 566112 566953 567828 568831 569985 571235
1143.5809 572492 573679 574776 575819 576872 577976 579131 580306 581475
1147.9199 582647 583866 585185 586636 588213 589900 591694 593624 595733
1152.2590 598046 600537 603130 605725 608228 610578 612757 614780 616695
1156.5980 618561 620433 622338 624262 626153 627950 629615 631151 632599
1160.9371 634006 635396 636753 638032 639189 640224 641194 642201 643351
1165.2761 644700 646222 647821 649379 650818 652122 653328 654485 655624
1169.6152 656756 657889 659027 660151 661186 662007 662501 662658 662637
1173.9542 662723 663198 664189 665580 667049 668209 668768 668627 667883
1178.2933 666784 665671 664950 665050 666347 669054 673116 678195 683767
1182.6323 689281 694313 698615 702086 704722 706597 707887 708890 709959
1186.9714 711387 713272 715490 717778 719884 721692 723240 724657 726069
1191.3104 727546 729105 730748 732482 734309 736214 738145 740025 741774
1195.6495 743343 744741 746050 747412 748978 750841 752983 755280 757570
1199.9885 759733 761753 763704 765679 767722 769792 771793 773634 775285
1204.3276 776797 778269 779803 781447 783176 784911 786568 788105 789521
1208.6666 790823 791972 792879 793466 793764 793967 794379 795267 796708
1213.0057 798548 800487 802254 803734 804975 806088 807127 808056 808812
1217.3447 809404 809948 810613 811503 812589 813733 814794 815720 816552
1221.6838 817336 818017 818428 818399 817922 817248 816819 817060 818151
1226.0228 819923 821957 823800 825184 826111 826783 827454 828289 829321
1230.3619 830489 831716 832962 834238 835587 837044 838616 840280 841996
1234.7009 843733 845483 847267 849109 851021 852975 854928 856844 858744
1239.0400 860713 862874 865307 867969 870660 873088 875007 876375 877425
1243.3790 878590 880310 882815 886014 889540 892939 895878 898263 900219
1247.7181 901965 903670 905368 906965 908320 909322 909939 910206 910189
1252.0571 909962 909587 909107 908524 907763 906695 905211 903327 901213
1256.3962 899086 896982 894614 891462 887147 881872 876604 872786 871692
1260.7352 873778 878449 884373 890157 894953 898653 901642 904299 906612
1265.0743 908134 908311 906982 904759 902986 903217 906391 912152 918774
1269.4133 923854 925482 923239 918424 913342 910101 909618 911394 914084
1273.7524 916405 917794 918499 919195 920477 922567 925314 928399 931542
1278.0914 934613 937653 940825 944346 948391 952985 957929 962837 967286
1282.4305 971033 974147 976937 979681 982311 984300 984899 983639 980789
1286.7695 977431 975034 974740 976810 980570 984867 988714 991700 993967
1291.1086 995869 997635 999253 1000573 1001460 1001828 1001600 1000692 999126
1295.4476 997176 995379 994340 994405 995456 996959 998249 998861 998679
1299.7867 997890 996810 995734 994870 994331 994132 994199 994395 994597
1304.1257 994726 994710 994386 993459 991618 988810 985479 982574 981199
1308.4648 982036 984825 988209 990113 988573 982688 973247 962659 954102
1312.8038 950195 951834 957797 965361 971561 974367 973167 968446 961130
1317.1429 952203 942860 934843 930421 931674 939411 952447 967849 982111
1321.4819 992618 998558 1000847 1001255 1001368 1001958 1002973 1003947
1325.3389 1004459 1004388 1003880 1003157 1002337 1001386 1000229 998923
1329.1958 997714 996908 996629 996682 996708 996538 996419 996784 997596
1333.5349 997772 995299 988205 975812 959296 940927 922401 903510 882408
1337.8739 857622 830582 806721 793948 798966 823514 862839 907454 947207
1342.2130 975346 990432 995437 995111 993441 992489 992632 993378 993944
1346.5520 993429 991004 986354 980177 974185 970398 970124 973344 978856
1350.8911 984899 989717 991770 989894 983739 974384 964446 957190 954921
1355.2301 957744 963644 969843 974355 976562 976546 973983 967628 955697
1359.5692 936641 909731 875442 836069 796563 764696 749442 757509 789657
1363.9082 839196 894018 941233 971821 982916 977158 960380 939381 920574
1368.2473 909188 908370 918189 935170 952946 963931 961398 941375 904119
1372.5863 854982 804102 764216 746584 756411 790156 836610 881625 914100
1376.9254 930053 932774 929542 927241 929431 936003 944730 953158 959664
1381.2644 963576 964982 964671 963986 963994 963921 959859 945341 914576
1385.6035 867148 811218 762292 737051 745137 783760 838775 891914 929846
1389.9425 949443 956214 957495 955428 944701 916540 866212 798934 730179
1394.2816 679749 662618 681337 724058 769486 796620 794654 768038 733978
1398.6206 713619 721636 759863 817962 879801 930959 962974 973137 962150
1402.9597 932888 891382 848068 816365 807796 826219 865282 911344 950256
1407.2987 973699 981375 978509 971281 963545 956417 949912 944640 942212
1411.6378 944358 951607 962386 972987 978528 974696 959562 934266 901696
1415.9768 863686 818859 763540 696261 623256 560536 529432 546636 613980
1420.3159 714346 817073 890779 917059 897953 853501 811165 792965 806901
1424.6549 846251 895731 939975 969291 980403 973636 950273 912749 867089
1428.9940 824237 797313 795287 817311 852472 886066 908209 918261 921427
1433.3330 920272 908530 873428 806140 712964 618170 554768 548083 602373
1437.6721 698863 805991 894954 951227 976579 982733 982335 982847 985568
1442.0111 988343 989016 987412 985119 983629 981997 975631 957596 922688
1446.3502 872437 817620 775496 762014 783063 830244 884353 924936 940288
1450.6892 932087 912339 895062 887849 887793 883268 859907 807534 724999
1455.0283 621203 512336 416801 350104 321641 334006 384014 464073 563302
1459.3673 668861 768144 851410 913210 951357 964214 949165 904729 835683
1463.7064 756991 691845 662891 681135 739808 817732 890385 941551 968320
1468.0454 977150 974865 961394 929091 868667 777602 665794 554970 471655
1472.3845 436554 455187 514587 588565 649760 682617 690169 690647 705877
1476.7235 748374 814595 887622 946693 977467 977596 955852 926722 903953
1481.0626 895919 904054 924128 949096 971827 986383 987789 971717 935656
1485.4016 881548 817530 755932 707235 673662 647730 618201 580012 540812
1489.7407 518543 531082 585081 671596 770649 860272 923483 950221 936460
1494.0797 884381 804311 715048 638919 592536 579152 588813 606854 624510
1498.4188 643536 671673 713408 764131 812480 848368 869385 879901 883716
1502.7578 876743 846427 779268 671434 534954 394974 279678 209055 188870
1507.0969 212220 266107 337958 418320 499641 574092 633606 672792 692396
1511.4359 700032 706714 720764 742630 763708 769943 748590 695151 617499
1515.7750 535059 472487 449605 471634 524818 580733 608304 588082 521585
1520.1140 430890 348787 304536 311979 365047 441950 515559 565045 583539
1524.4531 578531 565416 558236 563187 578347 598714 622022 650674 688565
1528.7921 735686 784895 823295 837224 817822 764650 686566 600223 526512
1533.1312 485176 488609 537019 617360 706798 779230 812219 792388 718669
1537.4702 603244 469376 345313 255187 210664 208070 233073 270010 309592
1541.8093 350094 392499 434914 471813 498987 519596 545234 589729 659334
1546.1483 746158 829646 885575 897438 864241 801378 734839 691411 688301
1550.4874 725654 785189 836766 851594 816584 742164 657984 597497 579492
1554.8264 597367 622763 621443 571816 475406 354332 239283 156482 120811
1559.1655 136409 200730 306975 443219 590737 725477 824192 872782 872198
1563.5045 838366 795977 769038 772096 805110 853379 892642 898310 856262
1567.8436 770964 666412 577842 536965 557857 631224 730355 824984 894388
1572.1826 932035 940456 922182 875066 796175 690930 579198 491724 457395
1576.5217 488916 576142 691301 802586 887696 940030 965850 976399 980808
1580.8607 983366 984845 985136 984757 984671 985414 986709 987859 988393
1585.1998 988344 987997 987458 986424 984308 980555 974967 967905 960337
1589.5389 953698 949465 948486 950302 952900 953274 948762 938573 924598
1593.8779 910870 901809 900203 906102 917191 930246 942584 952660 959747
1598.2170 963372 963159 959128 951927 942595 932028 920811 909739 900556
1602.5560 895914 898035 906782 918683 928060 929891 922545 908428 892086
1606.8951 877214 864879 854240 844943 838949 839921 850407 869025 890221
1611.2341 907226 916151 917792 915183 908330 890492 850086 778594 679886
1615.5732 574115 491910 460798 491448 572166 675135 770357 838508 875239
1619.9122 885867 876107 846633 795482 725657 650954 594089 576872 608143
1624.2513 677217 757410 818106 838876 818267 773162 729710 710845 726519
1628.5903 770898 827140 876783 908571 922044 924108 921017 911206 884183
1632.9294 826922 734057 615186 494033 399333 352640 360058 412066 490340
1637.2684 576577 658216 729135 786994 830524 858888 872911 876322 875193
1641.6075 875229 878180 879561 869471 836775 774958 686670 584323 486223
1645.9465 410298 368803 366345 400948 465837 549889 636915 706095 735817
1650.2856 710698 628655 503965 364146 241798 164960 149710 197113 294654
1654.6246 421006 552439 669036 758918 819371 854926 873718 883759 890201
1658.9637 893785 890577 873485 836070 777813 708016 644928 608961 613009
1663.3027 655700 722132 791630 847080 879648 886886 867910 821363 748570
1667.6418 658570 569062 500411 466148 467067 493476 533407 579574 629283
1671.9808 678199 714942 723319 692449 627606 552695 500774 497631 548430
1676.3199 635364 727002 793185 817276 800578 758638 712641 679892 666647
1680.6589 665508 658570 625808 555751 453531 341731 252626 214969 241705
1684.9980 324630 438386 551309 637584 685230 697285 687110 671078 662171
1689.3370 666723 684623 711773 742918 773175 797644 809938 801538 763766
1693.6761 692531 593632 484942 392600 341431 343497 390673 455887 503628
1698.0151 505527 453834 366104 278253 228756 241312 314417 422958 530696
1702.3542 606716 637173 627054 593022 553356 521313 504268 506142 528893
1706.6932 571113 625617 679672 719571 737370 735244 724109 716989 721150
1711.0323 733712 743194 735939 703797 648977 583500 523334 480138 455106
1715.3713 438791 417611 383557 341128 306700 300201 333978 405604 498715
1719.7104 590773 662681 705015 718751 711954 695387 679077 670145 671546
1724.0494 681788 696155 709346 718121 722105 722062 717158 703931 678539
1728.3885 641058 598330 562201 543101 542592 550109 547019 516616 454572
1732.7275 373510 298568 256112 261800 314354 397647 488693 566312 616293
1737.0667 632443 615820 574348 522519 478873 459870 472243 508715 551043
1741.4056 579688 584465 569435 549059 538551 544905 563874 583698 592230
1745.7448 582983 557414 523334 490921 468176 457545 455239 453954 447956
1750.0837 437668 430606 437550 466087 515543 576419 634385 676094 693616
1754.4229 685947 658150 619492 581357 554830 547825 562337 593054 628368
1758.7618 653919 657715 635083 591404 541012 501974 488598 505229 544803
1763.1010 593093 635994 665246 679296 679864 668011 643458 607597 566870
1767.4399 532401 514678 516445 529109 536038 521489 479989 420462 362563
1771.7791 327285 327033 360371 413811 469153 512137 537873 550700 559378
1776.1180 570903 586555 601933 610198 606190 589189 563404 536526 517153
1780.4572 511823 522380 544660 569558 586661 589074 576910 557246 540380
1784.7961 534532 542076 559263 579071 594969 603300 603361 595866 581259
1789.1353 559007 528184 488977 444354 400908 367951 354481 364977 396245
1793.4742 437713 475860 500707 510468 511221 511716 516885 524594 527828
1797.8134 520435 502033 478560 458391 447244 445619 450146 457128 465215
1802.1523 475385 488849 505005 521095 533592 540028 539993 534957 527401
1806.4915 519807 513771 509306 504679 497182 484844 468202 450848 438031
1810.8304 433972 439568 452012 466481 478649 486337 489471 488879 485138
1815.1696 478353 468772 457459 446335 437502 432330 430871 431893 433443
1819.5085 433691 431715 427853 423326 419176 415072 408895 397732 380028
1823.8477 357608 336034 322547 322388 335463 355422 371970 375449 361457
1828.1866 333169 300171 274345 264772 274070 297815 327137 353008 369953
1832.5258 377429 378546 377266 375957 374586 371709 366230 358656 351082
1836.8647 346045 345072 347815 352285 355991 357262 355882 352549 347514
1841.2039 339471 325829 304631 277016 248369 226787 219303 227991 248519
1845.5428 272271 290814 299976 301118 299158 299000 302780 309403 316098
1849.8820 320518 321946 321148 319419 317702 316289 315045 313774 312418
1854.2209 311035 309671 308267 306666 304695 302285 299560 296820 294419
1858.5601 292586 291307 290348 289410 288329 287167 286156 285517 285246
1862.8990 284998 284130 281898 277725 271370 262907 252548 240506 227103
1867.2382 213150 200306 191002 187713 191827 202748 217861 233488 246361
1871.5771 254778 258871 259967 259601 258791 257889 256875 255702 254437
1875.9163 253187 251982 250746 249387 247882 246302 244770 243411 242302
1880.2552 241442 240712 239880 238666 236864 234450 231613 228703 226150
1884.5944 224388 223710 224044 224696 224332 221407 215001 205630 195430
1888.9333 187417 184108 186282 192629 200472 207063 210650 210814 208128
1893.2725 203614 198409 193659 190434 189440 190680 193348 196177 198055
1897.6115 198531 197868 196671 195431 194291 193144 191878 190505 189114
1901.9506 187755 186404 185036 183703 182519 181531 180619 179519 177962
1906.2896 175810 173102 169994 166695 163466 160654 158682 157930 158536
1910.6287 160245 162427 164285 165178 164901 163756 162353 161188 160235
1914.9677 158800 155831 150581 143287 135395 129109 126403 128029 133065
1919.3068 139268 144038 145500 143178 138036 131954 126937 124373 124623
1923.6458 127023 130279 133061 134528 134541 133521 132062 130583 129194
1927.9849 127801 126305 124730 123198 121812 120569 119364 118075 116655
1932.3239 115164 113725 112451 111375 110445 109559 108619 107573 106415
1936.6630 105164 103866 102597 101450 100450 99435 98004 95649 92072 87517
1941.4841 82848 79244 77622 78127 80040 82167 83482 83600 82827 81803 81048
1946.7874 80694 80537 80276 79740 78950 78043 77148 76327 75572 74844 74090
1952.0907 73246 72253 71088 69796 68480 67267 66233 65366 64567 63704 62680
1957.3939 61471 60127 58740 57394 56144 55018 54029 53186 52488 51912 51413
1962.6973 50932 50404 49767 48956 47916 46636 45199 43798 42687 42078 42023
1968.0005 42379 42862 43186 43187 42874 42379 41857 41401 41018 40655 40253
1973.3038 39787 39274 38756 38277 37858 37496 37172 36885 36677 36642 36896
1978.6071 37527 38543 39856 41304 42716 43960 44980 45780 46406 46912 47359
1983.9104 47802 48283 48801 49294 49652 49777 49666 49450 49344 49517 49952
1989.2136 50404 50522 50063 49083 47950 47180 47154 47929 49220 50574 51607
1994.5170 52161 52311 52246 52136 52052 51975 51848 51637 51345 51005 50650
1999.8202 50294 49925 49511 49021 48440 47777 47059 46311 45542 44740 43890
2005.1235 42998 42106 41285 40605 40104 39777 39581 39462 39376 39303 39235
2010.4268 39171 39116 39083 39100 39192 39349 39505 39544 39344 38848 38112
2015.7301 37298 36611 36218 36173 36413 36799 37180 37447 37553 37501 37326
2021.0333 37077 36807 36569 36408 36344 36371 36452 36533 36568 36533 36439
2026.3367 36326 36243 36225 36277 36373 36471 36530 36539 36512 36490 36512
2031.6399 36597 36734 36886 37023 37138 37270 37482 37835 38354 39016 39762
2036.9432 40525 41253 41915 42490 42968 43352 43673 43994 44392 44925 45604
2042.2465 46390 47216 48017 48756 49429 50055 50661 51271 51896 52533 53168
2047.5498 53810 54518 55424 56703 58499 60815 63465 66104 68359 69981 70952
2052.8530 71470 71841 72332 73074 74051 75152 76255 77265 78131 78835 79382
2058.1563 79803 80151 80495 80900 81408 82024 82711 83391 83960 84320 84422
2063.4597 84314 84142 84118 84424 85136 86186 87400 88586 89613 90455 91164
2068.7629 91819 92476 93146 93817 94471 95103 95718 96326 96934 97554 98201
2074.0662 98897 99665 100512 101431 102399 103386 104362 105309 106218 107096
2078.8875 107955 108807 109658 110502 111324 112118 112892 113675 114501
2083.2263 115376 116262 117085 117764 118262 118606 118872 119133 119413
2087.5654 119672 119846 119902 119878 119863 119937 120111 120304 120378
2091.9045 120209 119747 119038 118190 117330 116567 115966 115562 115361
2096.2437 115347 115488 115742 116067 116434 116822 117216 117590 117913
2100.5825 118163 118345 118501 118696 118989 119401 119899 120418 120888
2104.9216 121275 121586 121858 122132 122427 122739 123048 123341 123617
2109.2607 123894 124193 124533 124922 125354 125812 126267 126690 127059
2113.5999 127364 127611 127813 127978 128098 128143 128078 127877 127545
2117.9387 127123 126671 126241 125844 125444 124974 124372 123610 122707
2122.2778 121707 120659 119588 118496 117376 116222 115030 113793 112498
2126.6169 111123 109659 108109 106490 104815 103085 101283 99384 97368 95226
2131.4380 92967 90615 88209 85803 83461 81252 79235 77457 75939 74670 73602
2136.7415 72651 71719 70728 69655 68537 67447 66442 65534 64678 63813 62894
2142.0447 61919 60914 59909 58913 57911 56889 55846 54799 53771 52776 51812
2147.3479 50875 49968 49105 48302 47558 46850 46138 45384 44566 43691 42774
2152.6511 41831 40861 39850 38781 37636 36400 35059 33606 32060 30489 29021
2157.9546 27822 27048 26790 27041 27697 28602 29600 30578 31480 32295 33044
2163.2578 33754 34449 35149 35867 36619 37420 38282 39202 40153 41081 41918
2168.5610 42604 43119 43486 43768 44036 44340 44682 45021 45291 45436 45437
2173.8643 45327 45177 45071 45066 45174 45367 45601 45843 46082 46317 46540
2179.1677 46727 46849 46895 46888 46885 46947 47118 47406 47786 48220 48675
2184.4709 49127 49569 50002 50439 50901 51408 51967 52566 53174 53755 54285
2189.7742 54763 55209 55643 56077 56505 56915 57306 57689 58085 58509 58960
2195.0774 59422 59875 60310 60731 61151 61578 62013 62449 62876 63286 63675
2200.3809 64041 64386 64728 65091 65495 65942 66405 66842 67220 67539 67829
2205.6841 68135 68482 68859 69234 69573 69865 70131 70408 70729 71113 71555
2210.9873 72033 72514 72960 73339 73637 73876 74106 74396 74799 75328 75951
2216.2905 76598 77200 77713 78137 78510 78885 79303 79770 80261 80735 81168
2221.5940 81565 81962 82405 82917 83484 84065 84615 85113 85573 86034 86538
2226.8972 87105 87725 88368 89001 89607 90188 90758 91336 91934 92554 93189
2232.2004 93825 94450 95062 95669 96289 96938 97624 98334 99046 99737 100401
2237.5037 101047 101698 102374 103076 103795 104510 105206 105878 106524
2241.8428 107147 107747 108336 108938 109588 110318 111129 111988 112834
2246.1819 113609 114291 114901 115495 116125 116805 117508 118180 118775
2250.5210 119287 119746 120200 120679 121182 121683 122157 122607 123068
2254.8599 123593 124232 125008 125919 126945 128057 129218 130386 131515
2259.1990 132567 133528 134412 135253 136083 136909 137711 138454 139122
2263.5381 139733 140344 141025 141827 142762 143803 144907 146043 147206
2267.8772 148412 149679 151008 152381 153770 155158 156548 157960 159412
2272.2161 160914 162459 164034 165632 167254 168907 170605 172359 174182
2276.5552 176090 178101 180229 182477 184832 187273 189780 192339 194945
2280.8943 197598 200297 203030 205783 208537 211273 213976 216631 219221
2285.2334 221734 224164 226510 228781 230987 233140 235255 237340 239399
2289.5723 241429 243413 245328 247153 248877 250502 252045 253515 254899
2293.9114 256162 257253 258145 258863 259488 260129 260861 261678 262487
2298.2505 263158 263600 263819 263906 263982 264120 264309 264471 264515
2302.5896 264380 264042 263479 262645 261476 259928 258031 255895 253674
2306.9285 251494 249402 247356 245276 243101 240826 238506 236220 234052
2311.2676 232077 230367 228987 227976 227309 226879 226500 225943 224993
2315.6067 223497 221386 218674 215435 211779 207837 203753 199693 195835
2319.9458 192345 189342 186875 184950 183587 182884 183008 184095 186082
2324.2847 188597 190987 192511 192615 191131 188291 184556 180397 176145
2328.6238 171996 168090 164581 161625 159312 157642 156564 156034 156010
2332.9629 156351 156716 156601 155558 153474 150713 147971 145907 144781
2337.3020 144332 143983 143207 141832 140090 138437 137281 136781 136835
2341.6409 137214 137757 138494 139645 141513 144394 148621 154743 163642
2345.9800 176336 193337 213822 235141 253205 263784 264187 254406 237080
2350.3191 216281 195819 177987 163284 151026 140259 130387 121304 113145
2354.6582 106021 99906 94686 90243 86481 83307 80620 78341 76453 75004 74056
2359.9614 73622 73628 73941 74429 75022 75732 76638 77840 79414 81387 83736
2365.2646 86405 89337 92493 95868 99492 103421 107715 112422 117563 123129
2370.0859 129100 135465 142226 149397 156982 164966 173320 182024 191069
2374.4248 200461 210195 220234 230516 240966 251533 262203 272991 283918
2378.7639 294976 306109 317205 328115 338675 348730 358156 366865 374806
2383.1030 381949 388272 393750 398361 402099 404998 407132 408603 409508
2387.4421 409919 409882 409437 408649 407613 406434 405195 403926 402611
2391.7810 401211 399698 398067 396344 394567 392783 391033 389348 387736
2396.1201 386171 384612 383023 381403 379790 378237 376772 375372 373964
2400.4592 372471 370854 369140 367402 365715 364110 362561 361011 359409
2404.7983 357745 356061 354432 352935 351622 350512 349587 348806 348120
2409.1372 347482 346860 346238 345612 344975 344312 343598 342814 341951
2413.4763 341027 340072 339123 338209 337342 336516 335710 334894 334045
2417.8154 333158 332252 331365 330534 329772 329063 328375 327682 326979
2422.1545 326276 325582 324885 324163 323400 322610 321838 321133 320522
2426.4934 319991 319493 318978 318419 317821 317212 316621 316066 315550
2430.8325 315063 314596 314139 313688 313244 312805 312368 311920 311451
2435.1716 310960 310464 310002 309619 309346 309176 309065 308953 308793
2439.5107 308574 308324 308089 307897 307746 307601 307426 307207 306967
2443.8496 306754 306618 306589 306666 306820 307004 307166 307261 307263
2448.1887 307183 307067 306986 307007 307159 307421 307736 308039 308288
2452.5278 308481 308643 308811 309005 309232 309486 309761 310052 310355
2456.8669 310657 310931 311138 311247 311240 311132 310963 310787 310648
2461.2058 310564 310522 310484 310408 310259 310024 309708 309327 308913
2465.5449 308503 308141 307860 307669 307546 307445 307308 307097 306803
2469.8840 306449 306074 305712 305381 305079 304794 304518 304250 303996
2474.2231 303762 303547 303336 303107 302838 302512 302127 301691 301228
2478.5620 300769 300345 299976 299668 299405 299166 298936 298711 298500
2482.9011 298309 298137 297966 297773 297543 297277 296993 296721 296485
2487.2402 296303 296174 296077 295978 295835 295626 295357 295073 294831
2491.5793 294676 294609 294585 294546 294450 294296 294113 293932 293763
2495.9182 293594 293406 293203 293012 292871 292799 292780 292778 292751
2500.2573 292680 292569 292431 292279 292112 291925 291717 291501 291301
2504.5964 291138 291025 290955 290905 290838 290722 290539 290300 290043
2508.9355 289814 289648 289551 289499 289451 289371 289250 289105 288969
2513.2744 288869 288815 288794 288786 288772 288748 288714 288672 288619
2517.6135 288546 288449 288336 288222 288119 288021 287907 287755 287568
2521.9526 287379 287243 287201 287257 287363 287439 287414 287253 286983
2526.2917 286677 286432 286324 286387 286594 286871 287124 287279 287312
2530.6306 287255 287173 287126 287135 287181 287227 287245 287246 287264
2534.9697 287330 287448 287585 287700 287768 287804 287848 287941 288092
2539.3088 288276 288452 288587 288682 288768 288888 289069 289305 289564
2543.6479 289798 289973 290081 290139 290178 290235 290339 290512 290763
2547.9868 291090 291472 291866 292226 292515 292725 292878 293017 293182
2552.3259 293401 293678 293999 294339 294670 294974 295246 295499 295756
2556.6650 296042 296368 296727 297102 297475 297838 298189 298531 298864
2561.0042 299192 299526 299880 300269 300696 301156 301633 302119 302608
2565.3430 303097 303576 304035 304465 304877 305297 305756 306276 306853
2569.6821 307457 308044 308581 309064 309523 310015 310601 311314 312141
2574.0212 313025 313882 314644 315282 315820 316312 316815 317367 317977
2578.3604 318641 319345 320085 320856 321650 322461 323278 324097 324913
2582.6995 325727 326542 327363 328201 329070 329975 330910 331862 332817
2587.0383 333775 334750 335760 336812 337891 338972 340029 341056 342070
2591.3774 343098 344158 345249 346351 347440 348502 349544 350587 351660
2595.7166 352787 353981 355237 356542 357874 359210 360531 361829 363106
2600.0557 364378 365669 367005 368406 369877 371413 372992 374581 376146
2604.3945 377666 379138 380588 382060 383599 385225 386922 388646 390348
2608.7336 391999 393605 395206 396850 398574 400385 402260 404155 406030
2613.0728 407863 409666 411477 413350 415322 417406 419576 421782 423969
2617.4119 426097 428149 430140 432109 434112 436202 438406 440712 443077
2621.7507 445447 447789 450110 452443 454823 457262 459746 462248 464752
2626.0898 467267 469819 472430 475104 477825 480554 483254 485896 488481
2630.4290 491043 493648 496368 499245 502265 505358 508430 511413 514298
2634.7681 517137 520010 522983 526072 529250 532466 535676 538860 542023
2639.1069 545186 548365 551566 554778 557981 561156 564305 567451 570641
2643.4460 573919 577307 580792 584329 587870 591380 594847 598277 601675
2647.7852 605046 608395 611739 615106 618518 621982 625473 628953 632380
2652.1243 635732 639004 642211 645369 648496 651605 654704 657791 660851
2656.4631 663862 666794 669626 672345 674947 677442 679843 682163 684403
2660.8022 686544 688541 690341 691905 693223 694316 695216 695940 696488
2665.1414 696848 697026 697054 696986 696875 696747 696596 696393 696114
2669.4805 695750 695321 694864 694426 694042 693719 693429 693120 692736
2673.8193 692251 691691 691124 690631 690257 689991 689773 689528 689206
2678.1584 688806 688363 687923 687509 687105 686671 686168 685573 684894
2682.4976 684161 683409 682674 681981 681348 680782 680276 679813 679369
2686.8367 678929 678489 678057 677645 677253 676869 676474 676054 675605
2691.1755 675130 674633 674120 673597 673078 672575 672091 671610 671104
2695.5146 670552 669957 669356 668795 668303 667878 667488 667097 666689
2699.8538 666267 665841 665404 664934 664406 663823 663219 662649 662151
2704.1929 661723 661324 660897 660404 659842 659235 658618 658022 657464
2708.5317 656956 656499 656086 655695 655292 654845 654344 653805 653266
2712.8708 652767 652325 651930 651546 651137 650679 650177 649653 649130
2717.2100 648618 648108 647583 647039 646494 645986 645547 645183 644857
2721.5491 644511 644086 643563 642970 642375 641858 641475 641234 641089
2725.8879 640952 640731 640356 639810 639125 638365 637595 636857 636160
2730.2271 635495 634854 634237 633658 633133 632665 632243 631852 631479
2734.5662 631127 630809 630534 630300 630083 629841 629532 629123 628607
2738.9053 628000 627335 626652 625981 625339 624730 624146 623580 623022
2743.2441 622471 621928 621407 620931 620523 620197 619938 619703 619442
2747.5833 619121 618743 618338 617934 617529 617090 616580 615991 615356
2751.9224 614729 614145 613609 613100 612604 612130 611699 611312 610935
2756.2615 610512 610002 609412 608791 608199 607667 607184 606717 606245
2760.6003 605781 605357 604999 604699 604417 604100 603714 603255 602749
2764.9395 602231 601730 601258 600813 600384 599954 599498 598989 598408
2769.2786 597749 597030 596288 595563 594895 594314 593855 593547 593405
2773.6177 593408 593479 593500 593355 592975 592369 591614 590816 590060
2777.9565 589389 588802 588281 587808 587373 586968 586580 586191 585782
2782.2957 585345 584881 584396 583887 583342 582745 582096 581429 580808
2786.6348 580311 579986 579820 579743 579657 579487 579211 578854 578448
2790.9739 577995 577457 576786 575968 575052 574128 573283 572566 571975
2795.3127 571487 571094 570812 570658 570614 570607 570525 570268 569797
2799.6519 569150 568419 567706 567083 566565 566125 565709 565262 564748
2803.9910 564157 563510 562842 562185 561559 560968 560417 559930 559548
2808.3301 559303 559189 559142 559057 558837 558435 557874 557224 556556
2812.6689 555912 555295 554695 554108 553548 553029 552553 552105 551661
2817.0081 551204 550736 550269 549814 549367 548911 548429 547917 547387
2821.3472 546866 546386 545967 545616 545318 545040 544731 544343 543849
2825.6863 543263 542635 542028 541487 541007 540547 540057 539515 538939
2830.0251 538367 537824 537301 536768 536212 535655 535143 534696 534281
2834.3643 533810 533194 532417 531564 530798 530271 530045 530043 530082
2838.7034 529952 529512 528729 527681 526502 525319 524210 523191 522227
2843.0425 521261 520241 519143 517987 516836 515778 514884 514175 513604
2847.3813 513074 512487 511794 511020 510244 509558 509024 508649 508394
2851.7205 508195 507995 507755 507470 507160 506857 506589 506356 506128
2856.0596 505858 505518 505125 504750 504485 504395 504474 504643 504789
2860.3987 504814 504685 504431 504115 503782 503447 503097 502727 502355
2864.7375 502019 501745 501519 501288 500988 500576 500051 499438 498770
2869.0767 498069 497360 496691 496139 495793 495701 495837 496098 496337
2873.4158 496419 496266 495866 495263 494524 493719 492908 492130 491411
2877.7549 490757 490167 489638 489166 488749 488378 488036 487702 487359
2882.0938 487005 486644 486280 485906 485510 485076 484603 484098 483577
2886.4329 483059 482564 482107 481694 481317 480953 480566 480122 479597
2890.7720 478975 478249 477417 476506 475578 474740 474108 473752 473650
2895.1111 473684 473684 473501 473063 472396 471590 470743 469926 469162
2899.4500 468445 467756 467084 466438 465842 465326 464911 464591 464328
2903.7891 464056 463706 463228 462610 461876 461077 460270 459504 458810
2908.1282 458183 457591 456977 456284 455481 454587 453660 452772 451967
2912.4673 451236 450520 449744 448858 447873 446857 445908 445101 444451
2916.8062 443907 443379 442778 442069 441280 440487 439769 439169 438679
2921.1453 438253 437845 437435 437033 436664 436338 436044 435750 435427
2925.4844 435065 434684 434332 434073 433972 434065 434343 434736 435129
2929.8235 435400 435462 435299 434958 434531 434105 433742 433459 433243
2934.1624 433062 432885 432695 432493 432301 432153 432076 432078 432133
2938.5015 432190 432182 432052 431785 431421 431050 430780 430685 430761
2942.8406 430918 431020 430954 430681 430252 429757 429272 428809 428324
2947.1797 427750 427038 426177 425198 424161 423155 422282 421638 421276
2951.5186 421171 421217 421268 421192 420928 420499 419980 419461 419001
2955.8577 418620 418304 418030 417773 417514 417243 416958 416666 416390
2960.1968 416157 416002 415943 415978 416071 416161 416184 416096 415898
2964.5359 415634 415367 415147 414984 414856 414727 414586 414465 414426
2968.8748 414518 414734 414994 415171 415146 414876 414418 413915 413532
2973.2139 413379 413462 413673 413844 413817 413519 412989 412351 411748
2977.5530 411277 410952 410733 410571 410461 410432 410512 410664 410780
2981.8921 410718 410380 409779 409033 408299 407684 407188 406720 406174
2986.2310 405516 404816 404206 403802 403622 403583 403554 403447 403262
2990.5701 403073 402954 402912 402861 402669 402244 401600 400867 400236
2994.9092 399871 399834 400062 400398 400662 400717 400517 400104 399576
2999.2483 399035 398549 398125 397716 397245 396649 395918 395121 394391
3003.5872 393873 393665 393775 394119 394553 394913 395044 394833 394239
3007.9263 393324 392239 391169 390241 389461 388743 388013 387316 386820
3012.2654 386708 387019 387573 388060 388226 388035 387676 387420 387432
3016.6045 387689 388026 388285 388419 388481 388535 388562 388456 388111
3020.9434 387528 386842 386259 385930 385858 385905 385882 385673 385285
3025.2825 384827 384429 384164 384024 383923 383708 383180 382137 380474
3029.6216 378297 375985 374090 373112 373250 374288 375716 377012 377892
3033.9607 378396 378753 379164 379653 380078 380262 380135 379768 379316
3038.2996 378919 378637 378458 378337 378250 378199 378202 378261 378354
3042.6387 378431 378451 378396 378289 378150 377955 377599 376919 375785
3046.9778 374212 372428 370832 369842 369710 370383 371514 372618 373292
3051.3169 373390 373045 372523 372022 371527 370845 369786 368365 366876
3055.6558 365776 365437 365925 366957 368040 368721 368793 368354 367701
3059.9949 367139 366809 366613 366284 365551 364314 362724 361120 359850
3064.3340 359100 358831 358878 359109 359530 360241 361296 362575 363794
3068.6731 364646 364971 364824 364413 363949 363540 363178 362809 362403
3073.0120 361971 361536 361099 360636 360130 359583 359009 358406 357749
3077.3511 357018 356238 355497 354912 354562 354438 354446 354480 354489
3081.6902 354516 354653 354968 355431 355912 356233 356260 355963 355417
3086.0293 354760 354123 353595 353215 353001 352968 353111 353382 353667
3090.3682 353819 353717 353327 352706 351938 351048 349976 348642 347067
3094.7073 345468 344213 343647 343891 344744 345755 346438 346490 345900
3099.0464 344890 343776 342827 342187 341893 341912 342186 342647 343205
3103.3855 343748 344144 344271 344061 343554 342902 342334 342054 342148
3107.7244 342539 343027 343382 343449 343183 342647 341963 341265 340652
3112.0635 340145 339660 339034 338118 336905 335602 334548 334023 334044
3116.4026 334335 334498 334303 333871 333588 333805 334526 335330 335607
3120.7417 334958 333484 331762 330510 330175 330702 331600 332261 332305
3125.0806 331750 330944 330339 330245 330720 331607 332671 333719 334626
3129.4197 335284 335535 335179 334085 332336 330290 328479 327383 327203
3133.7588 327767 328647 329390 329737 329695 329461 329265 329249 329431
3138.0979 329746 330104 330416 330603 330599 330367 329926 329362 328794
3142.4368 328329 328021 327855 327771 327696 327579 327402 327171 326903
3146.7759 326606 326277 325906 325489 325036 324580 324178 323895 323779
3151.1150 323845 324059 324345 324606 324764 324774 324638 324388 324060
3155.4541 323681 323261 322808 322338 321882 321477 321155 320924 320771
3159.7930 320662 320560 320434 320264 320052 319812 319573 319363 319205
3164.1321 319105 319051 319014 318951 318821 318595 318272 317882 317482
3168.4712 317132 316872 316707 316614 316551 316475 316350 316152 315874
3172.8103 315541 315214 314961 314799 314632 314265 313491 312245 310708
3177.1492 309289 308453 308487 309339 310640 311900 312752 313092 313048
3181.4883 312818 312506 312068 311403 310490 309466 308592 308110 308116
3185.8274 308510 309071 309577 309910 310074 310137 310152 310116 309986
3190.1665 309743 309423 309112 308894 308793 308758 308695 308506 308125
3194.5054 307514 306658 305581 304374 303216 302342 301950 302106 302696
3198.8445 303480 304207 304729 305037 305212 305335 305433 305475 305420
3203.1836 305263 305054 304870 304785 304834 304995 305171 305199 304888
3207.5227 304110 302904 301524 300371 299827 300035 300794 301614 301958
3211.8616 301515 300369 298952 297814 297350 297639 298460 299452 300283
3216.2007 300757 300810 300472 299836 299061 298359 297948 297961 298382
3220.5398 299048 299745 300316 300733 301071 301417 301786 302090 302189
3224.8789 301987 301492 300825 300152 299600 299201 298905 298640 298378
3229.2178 298149 298006 297971 298013 298093 298223 298488 298987 299731
3233.5569 300573 301245 301502 301270 300698 300078 299675 299584 299708
3237.8960 299843 299819 299595 299273 299024 298994 299206 299517 299647
3242.2351 299278 298225 296582 294767 293389 292994 293799 295589 297824
3246.5740 299897 301391 302188 302414 302292 302019 301722 301452 301187
3250.9131 300823 300194 299171 297796 296344 295247 294874 295317 296322
3255.2522 297435 298259 298654 298744 298761 298858 299021 299142 299149
3259.5913 299085 299082 299253 299603 300021 300346 300467 300373 300155
3263.9302 299942 299833 299860 299983 300124 300213 300210 300119 299975
3268.2693 299841 299795 299901 300157 300440 300510 300107 299115 297690
3272.6084 296231 295190 294821 295043 295521 295915 296106 296236 296548
3276.9475 297155 297943 298652 299087 299251 299320 299485 299796 300145
3281.2864 300372 300409 300335 300326 300525 300965 301552 302120 302503
3285.6255 302576 302285 301665 300840 299989 299282 298792 298469 298174
3289.9646 297785 297287 296796 296501 296560 297021 297808 298761 299699
3294.3037 300461 300946 301117 301022 300777 300533 300415 300471 300662
3298.6426 300893 301069 301136 301087 300944 300730 300469 300193 299958
3302.9817 299836 299894 300153 300556 300959 301151 300930 300198 299035
3307.3208 297712 296602 296028 296119 296744 297575 298239 298488 298297
3311.6599 297853 297454 297363 297694 298380 299217 299965 300449 300624
3315.9988 300563 300402 300267 300219 300249 300305 300325 300268 300115
3320.3379 299859 299500 299047 298534 298031 297631 297424 297451 297675
3324.6770 297986 298249 298375 298361 298295 298293 298428 298682 298964
3329.0161 299171 299253 299233 299165 299070 298902 298577 298029 297269
3333.3550 296376 295443 294535 293686 292951 292456 292385 292890 293971
3337.6941 295421 296879 297978 298501 298461 298066 297607 297326 297339
3342.0332 297622 298049 298459 298723 298782 298662 298440 298199 297979
3346.3723 297769 297541 297294 297086 297019 297188 297626 298273 298997
3350.7112 299646 300105 300323 300304 300067 299628 298996 298209 297364
3355.0503 296617 296126 295981 296152 296503 296857 297072 297084 296899
3359.3894 296567 296151 295730 295387 295179 295083 294969 294653 293993
3363.7285 293005 291888 290941 290421 290422 290858 291545 292310 293068
3368.0674 293808 294541 295254 295895 296404 296736 296872 296803 296525
3372.4065 296051 295431 294765 294185 293803 293661 293713 293840 293911
3376.7456 293848 293662 293441 293302 293324 293511 293792 294053 294174
3381.0847 294058 293646 292921 291928 290778 289644 288732 288223 288208
3385.4236 288646 289365 290115 290661 290874 290781 290526 290251 289969
3389.7627 289514 288630 287174 285299 283487 282372 282415 283622 285473
3394.1018 287131 287822 287198 285491 283386 281694 281000 281442 282727
3398.4409 284333 285765 286758 287303 287553 287675 287746 287757 287682
3402.7798 287537 287399 287347 287400 287500 287545 287463 287256 287002
3407.1189 286805 286730 286777 286882 286957 286937 286811 286623 286451
3411.4580 286370 286423 286604 286858 287105 287258 287258 287095 286812
3415.7971 286474 286100 285591 284727 283254 281046 278258 275356 272977
3420.1360 271683 271727 272970 274975 277219 279299 281021 282362 283359
3424.4751 284016 284289 284141 283621 282896 282203 281742 281578 281609
3428.8142 281631 281462 281042 280456 279876 279469 279326 279445 279755
3433.1533 280152 280527 280793 280905 280876 280761 280630 280536 280504
3437.4922 280541 280644 280764 280771 280438 279519 277892 275712 273449
3441.8313 271765 271236 272025 273676 275165 275265 273116 268749 263261
3446.1704 258472 256169 257289 261495 267371 273133 277423 279772 280535
3450.5095 280454 280181 280033 280026 280052 280019 279891 279665 279352
3454.8484 278980 278607 278292 278063 277901 277765 277618 277435 277162
3459.1875 276685 275856 274589 272975 271334 270131 269786 270455 271906
3463.5266 273577 274806 275126 274484 273261 272085 271525 271842 272903
3467.8657 274298 275566 276404 276759 276782 276690 276622 276552 276315
3472.2046 275712 274653 273258 271854 270862 270610 271177 272347 273697
3476.5437 274782 275301 275163 274421 273127 271243 268683 265496 262048
3480.8828 259050 257330 257444 259370 262473 265797 268493 270106 270590
3485.2219 270119 268899 267152 265231 263675 263076 263773 265625 268029
3489.5608 270230 271703 272366 272502 272476 272472 272391 271956 270905
3493.8999 269164 266939 264692 263023 262460 263229 265113 267497 269608
3498.2390 270817 270831 269649 267349 263937 259392 253922 248205 243363
3502.5781 240601 240688 243613 248623 254583 260398 265215 268383 269358
3506.9170 267794 263836 258384 252998 249369 248590 250670 254608 258978
3511.2561 262651 265218 266926 268280 269626 270979 272120 272807 272918
3515.5952 272461 271494 270091 268384 266644 265270 264628 264768 265200
3519.9343 264943 262915 258537 252208 245328 239762 236982 237362 240010
3524.2732 243229 245334 245375 243427 240373 237410 235542 235303 236731
3528.6123 239510 243163 247205 251239 255007 258404 261429 264066 266141
3532.9514 267241 266828 264550 260607 255929 251950 250030 250805 253872
3537.2905 257994 261739 264143 265026 264833 264157 263292 262069 260006
3541.6294 256627 251742 245563 238646 231719 225497 220534 217183 215633
3545.9685 216015 218450 222987 229391 236919 244239 249672 251726 249728
3550.3076 244236 236974 230276 226265 226127 229788 236055 243139 249307
3554.6467 253444 255335 255556 255020 254390 253689 252373 249852 246097
3558.9856 241857 238288 236221 235626 235668 235282 233789 231034 227015
3563.3247 221395 213433 202479 188720 173601 159619 149573 145689 148978
3567.6638 158996 173983 191318 208207 222435 232891 239611 243342 244930
3572.0029 244949 243749 241732 239494 237655 236536 236030 235789 235575
3576.3420 235399 235341 235264 234795 233656 232069 230783 230576 231596
3580.6809 233118 233990 233454 231638 229258 226736 223466 217919 208625
3585.0200 195355 179674 164444 152678 146486 146688 153021 164479 179389
3589.3591 195340 209380 218770 222021 219527 213267 205715 198684 192878
3593.6982 188307 185046 183592 184529 187857 192639 197321 200460 201353
3598.0371 200154 197601 194641 192212 191130 191953 194809 199352 204923
3602.3762 210788 216209 220314 221998 220182 214381 205162 194033 182759
3606.7153 172673 164530 158954 156843 159067 165493 174171 181635 184460
3611.0544 181167 173134 163867 157140 155242 158299 164756 172337 178806
3615.3933 182319 181620 176316 167151 156001 145413 137869 135121 137846
3619.7324 145621 157123 170443 183526 194644 202749 207561 209370 208724
3624.0715 206164 202025 196249 188216 176849 161202 141481 119926 100833 89344
3628.8926 89397 101826 123661 149068 171508 186149 191472 189477 184498 181210
3633.7139 182682 189277 198839 207990 213859 215376 213528 210582 208790
3638.0530 209303 211800 214884 216906 216787 214467 210886 207560 205912
3642.3918 206578 208918 210964 209943 203312 189935 170851 149125 128701
3646.7310 112745 102344 96356 92515 89145 86417 86363 91681 104107 123308
3651.5522 146806 170747 190943 203800 207061 200510 186492 169768 156303
3655.8911 151125 156226 169711 186811 202271 212716 217708 219096 219361
3660.2302 220157 221817 223792 225395 226256 226361 225899 225138 224339
3664.5693 223554 222334 219581 213829 203896 189552 171758 152389 133739
3668.9084 118196 108145 105736 112158 126547 145218 162082 170528 166094
3673.2473 148641 122832 96582 78127 72989 82098 101764 125427 146421 160553
3678.0686 167395 169774 171826 176713 185216 195795 205801 212937 216180
3682.4077 215896 213418 210425 208230 207067 205608 201224 191253 174803
3686.7466 153964 133343 117921 110473 110291 114133 118688 122784 127784
3691.0857 136032 148652 164344 179969 192328 199807 202843 203174 202619
3695.4248 202277 202478 203216 204503 206311 208190 208973 206975 200764
3699.7639 190195 177076 164923 157696 158018 165807 178179 190782 199911
3704.1028 204165 204670 203767 203053 202142 198986 191536 179502 164908
3708.4419 150956 140030 132324 126203 120031 114074 110915 113924 124835
3712.7810 142216 162012 179752 192830 201263 206572 209920 211073 208988
3717.1201 203367 195724 188879 185158 184656 184996 182903 176548 167011
3721.4590 157787 152648 153269 158188 163728 166215 164071 158549 152827
3725.7981 150214 152584 159808 170160 181109 189956 194212 192013 182791
3730.1372 167942 150828 135656 125547 120896 119219 116776 111026 102296 93560
3734.9583 88567 89707 97028 108808 122853 137381 151006 162345 170099 173761
3739.7795 174241 173437 172690 171209 165971 153638 133440 108992 87523 76674
3744.6006 80643 97898 121710 143130 154790 153721 142030 125369 110059 100265
3749.4219 96537 96421 96722 96087 96254 101071 113804 134444 158884 180668
3754.2429 194334 198263 195190 190112 186993 186504 186242 183165 176426
3758.5820 168563 164221 167303 178555 195156 212396 226093 234102 236202
3762.9211 233025 225300 214121 201767 191876 188198 192403 202452 212955
3767.2603 217687 212961 199837 183789 172012 169895 178634 195151 214083
3771.5991 230498 241809 248051 250840 251964 252530 252913 253063 252645
3775.9382 250870 246437 238043 225448 210408 196625 188419 188746 197696
3780.2773 212375 228180 240667 247042 246723 241063 232645 224488 219277
3784.6165 218658 222771 230279 238963 246657 252059 255013 256229 256703
3788.9553 257182 257925 258760 259352 259508 259348 259181 259090 258444
3793.2944 255743 249138 237517 221622 204427 190336 183402 185365 194500
3797.6335 205902 213210 211094 197505 174699 148579 126582 115042 117118
3801.9727 132052 155775 182276 205114 218791 220066 209118 190090 170244
3806.3115 157533 157415 170540 192700 217092 237565 250950 257435 259286
3810.6506 259110 258678 258512 257840 254693 246376 230694 207674 180789
3814.9897 156504 141882 141295 154048 174309 193398 203255 199449 182556
3819.3289 157666 132450 114590 109407 118367 138927 165686 192330 213555
3823.6677 226305 230068 226466 218522 209884 204073 203693 209658 220645
3828.0068 233141 242374 244101 236657 222200 206139 194636 191320 195241
3832.3459 201541 204601 201548 193662 184715 177668 172437 166483 157583
3836.6851 146295 135978 130413 131139 136735 144464 152577 161167 170977
3841.0239 181545 190681 195946 196876 195947 197302 204128 216629 231974
3845.3630 246043 255603 259528 258613 254518 248650 241554 232870 221679
3849.7021 207034 188471 166356 141994 117557 95929 80448 74314 79578 95955
3854.5232 120254 147101 170994 188703 200538 209587 219268 230755 241969
3858.8623 248829 247948 239008 225235 211656 202218 197607 195154 190935
3863.2014 182744 172063 163684 163093 173087 191606 212078 226121 227218
3867.5405 213572 188910 161096 139247 130466 137278 156620 180907 201015
3871.8794 210145 206864 195665 184582 181074 188469 204932 225236 243806
3876.2185 256928 263026 261589 252347 235694 213916 191754 175225 169082
3880.5576 174507 188564 205645 219854 226930 225056 214858 199153 182551
3884.8967 170538 167825 176467 194800 217907 239442 253809 257709 250676
3889.2356 234887 214610 195330 182384 179272 186317 200564 217203 231834
3893.5747 242298 248993 253613 257250 259192 257197 249077 234520 215919
3897.9138 197587 183743 176460 174834 175850 176323 174619 171104 167266
3902.2529 164397 162917 162742 164146 168192 176231 188847 205100 222694
3906.5918 238944 251867 260728 265902 268355 269157 269210 269124 269141
3910.9309 269177 269025 268635 268193 267805 266971 264362 258366 248260
3915.2700 235269 222565 213912 211626 215184 221509 226864 229136 228982
3919.6091 229072 231990 238247 245732 250892 250803 244814 234905 224730
3923.9480 218028 217206 222588 232429 243601 252716 257342 256856 252495
3928.2871 246529 240973 236613 232916 228869 224110 219538 216979 218122
3932.6262 223477 232016 241697 250458 257048 261237 263452 264232 263946
3936.9653 262887 261518 260509 260381 260990 261266 259569 254584 246278
3941.3042 236310 227560 222934 224043 230435 239756 248747 254583 255910
3945.6433 253145 247972 242378 237779 234667 232880 232176 232636 234595
3949.9824 238192 242968 247887 251839 254260 255401 256048 256902 258105
3954.3215 259228 259678 259184 258001 256733 255972 256001 256707 257658
3958.6604 258281 258045 256683 254377 251798 249897 249484 250814 253442
3962.9995 256462 258994 260595 261360 261676 261845 261859 261460 260422
3967.3386 258821 257080 255769 255266 255524 256096 256398 256058 255113
3971.6777 253948 253017 252561 252492 252528 252452 252296 252334 252877
3976.0166 254035 255614 257204 258400 258985 258992 258607 258036 257409
3980.3557 256786 256225 255825 255704 255928 256438 257058 257579 257863
3984.6948 257914 257857 257848 257962 258132 258159 257811 256938 255577
3989.0339 253981 252557 251713 251685 252409 253525 254505 254891 254499
3993.3728 253507 252366 251588 251507 252155 253278 254496 255479 256072
3997.7119 256301 256296 256186 256043 255873 255656
##END= 
