##TITLE= STDCHININASOLFATO
##JCAMP-DX= 4.24
##DATA TYPE= INFRARED SPECTRUM
##ORIGIN= JASCO
##OWNER= 
##DATE= 22/04/13
##TIME= 15:59:54
##SPECTROMETER/DATA SYSTEM= 
##RESOLUTION= 
##DELTAX=   0.48211674
##XUNITS= 1/CM
##YUNITS= TRANSMITTANCE
##XFACTOR= 1.00000
##YFACTOR= 0.0001
##FIRSTX=   599.7532
##LASTX=  4000.1226
##NPOINTS=     7054
##FIRSTY=      0.59944
##MAXY=      1.02144
##MINY=      0.54294
##XYDATA= (X++(Y..Y))
599.7532 5994 6090 6192 6290 6372 6432 6467 6483 6488 6489 6487 6479 6464 6442
606.5029 6421 6409 6407 6414 6423 6432 6443 6463 6500 6555 6623 6696 6770 6842
613.2525 6914 6985 7053 7115 7169 7215 7262 7316 7384 7464 7548 7625 7685 7724
620.0021 7743 7746 7737 7721 7705 7691 7685 7690 7707 7734 7770 7810 7854 7900
626.7518 7948 7997 8043 8085 8115 8131 8128 8106 8069 8022 7977 7942 7923 7917
633.5014 7914 7905 7883 7846 7799 7745 7688 7626 7555 7473 7379 7275 7164 7051
640.2510 6940 6837 6747 6674 6623 6596 6600 6640 6722 6850 7019 7220 7438 7657
647.0007 7868 8065 8243 8399 8528 8626 8697 8745 8780 8808 8828 8835 8822 8791
653.7503 8748 8710 8690 8690 8705 8722 8729 8723 8706 8672 8614 8523 8403 8280
660.4999 8191 8173 8238 8368 8521 8649 8723 8735 8706 8664 8635 8633 8671 8762
667.2496 8919 9097 9118 8898 8649 8499 8437 8429 8445 8465 8480 8495 8529 8600
673.9992 8709 8836 8940 8983 8946 8844 8715 8610 8565 8588 8660 8745 8809 8828
680.7488 8793 8711 8605 8505 8446 8452 8525 8634 8723 8736 8647 8482 8300 8166
687.4985 8113 8136 8199 8266 8315 8344 8362 8373 8374 8361 8335 8304 8274 8246
694.2481 8213 8165 8100 8029 7964 7919 7899 7909 7957 8054 8204 8400 8616 8818
700.9977 8976 9077 9126 9139 9130 9108 9081 9058 9050 9064 9094 9119 9117 9072
707.7474 8989 8891 8804 8746 8717 8702 8679 8637 8573 8498 8425 8360 8299 8229
714.4970 8137 8015 7865 7693 7512 7336 7183 7073 7030 7072 7207 7425 7693 7969
721.2466 8220 8429 8596 8727 8828 8899 8945 8969 8979 8980 8974 8965 8954 8947
727.9963 8948 8958 8974 8988 8992 8986 8971 8956 8946 8945 8950 8956 8958 8953
734.7459 8942 8932 8926 8927 8936 8948 8961 8972 8980 8985 8989 8993 9000 9010
741.4955 9026 9046 9068 9089 9110 9129 9148 9166 9184 9198 9206 9210 9211 9210
748.2452 9208 9201 9188 9168 9142 9111 9077 9037 8987 8929 8863 8797 8737 8685
754.9948 8643 8610 8583 8560 8539 8515 8485 8451 8416 8390 8380 8391 8424 8476
761.7444 8544 8624 8715 8811 8907 8991 9055 9092 9100 9085 9054 9017 8978 8942
768.4941 8909 8880 8860 8851 8857 8881 8919 8962 8999 9019 9018 8995 8958 8913
775.2437 8870 8832 8796 8761 8726 8692 8663 8643 8631 8623 8617 8610 8605 8607
781.9933 8615 8629 8643 8652 8654 8652 8650 8651 8653 8654 8649 8640 8630 8622
788.7430 8619 8620 8618 8608 8589 8559 8525 8490 8461 8437 8417 8397 8375 8347
795.4926 8312 8271 8220 8159 8086 8001 7907 7804 7697 7588 7480 7377 7286 7214
802.2422 7169 7160 7190 7261 7367 7496 7635 7773 7903 8024 8137 8244 8345 8437
808.9919 8516 8582 8636 8679 8714 8742 8762 8777 8787 8795 8803 8812 8820 8826
815.7415 8830 8830 8826 8817 8803 8784 8759 8732 8704 8673 8638 8594 8539 8471
822.4911 8387 8286 8167 8025 7856 7660 7444 7229 7045 6930 6912 7002 7182 7413
829.2408 7647 7843 7979 8057 8094 8116 8142 8183 8240 8310 8388 8470 8553 8634
835.9904 8712 8783 8842 8887 8917 8933 8938 8938 8937 8938 8943 8949 8952 8949
842.7401 8942 8930 8916 8904 8892 8878 8860 8835 8801 8758 8709 8654 8597 8537
849.4897 8474 8407 8330 8238 8127 7997 7855 7708 7569 7444 7334 7236 7142 7045
856.2393 6949 6864 6806 6794 6843 6959 7143 7385 7670 7976 8279 8558 8797 8988
862.9890 9133 9238 9307 9347 9360 9349 9322 9288 9260 9249 9261 9297 9352 9418
869.7386 9485 9545 9594 9630 9653 9665 9664 9651 9626 9591 9548 9502 9454 9407
876.4882 9360 9313 9265 9217 9166 9112 9053 8991 8926 8865 8817 8790 8792 8824
883.2379 8881 8952 9023 9082 9123 9146 9156 9161 9166 9173 9180 9184 9182 9174
889.9875 9163 9151 9139 9129 9119 9110 9104 9101 9101 9104 9106 9105 9101 9095
896.7371 9089 9085 9082 9078 9070 9059 9045 9030 9016 9002 8988 8972 8954 8933
903.4868 8910 8886 8863 8840 8818 8795 8771 8746 8721 8697 8676 8657 8637 8613
910.2364 8584 8549 8508 8466 8424 8384 8344 8302 8252 8191 8117 8031 7939 7851
916.9860 7781 7741 7740 7780 7855 7953 8059 8156 8233 8282 8302 8295 8267 8226
923.7357 8181 8140 8112 8102 8109 8130 8159 8189 8214 8229 8234 8228 8209 8179
930.4853 8136 8085 8028 7968 7906 7841 7772 7697 7618 7539 7465 7402 7351 7313
937.2349 7284 7256 7222 7176 7117 7050 6988 6950 6955 7016 7138 7311 7518 7737
943.9846 7944 8123 8264 8364 8426 8457 8466 8460 8440 8411 8371 8324 8273 8223
950.7342 8182 8154 8144 8152 8176 8212 8258 8308 8357 8401 8436 8457 8463 8455
957.4838 8435 8408 8376 8341 8303 8260 8209 8149 8079 8000 7913 7823 7734 7652
964.2335 7583 7531 7496 7475 7466 7465 7475 7500 7544 7606 7680 7756 7821 7867
970.9831 7890 7892 7879 7856 7826 7790 7749 7700 7644 7580 7509 7430 7347 7262
977.7327 7179 7102 7038 6991 6966 6965 6988 7034 7100 7183 7277 7376 7474 7565
984.4824 7644 7707 7752 7778 7785 7777 7756 7726 7690 7650 7608 7563 7515 7466
991.2320 7414 7359 7301 7238 7171 7101 7030 6956 6883 6808 6734 6661 6591 6525
997.9816 6463 6407 6356 6312 6277 6252 6243 6250 6276 6320 6376 6440 6502 6556
1004.7313 6593 6610 6605 6580 6537 6482 6425 6373 6334 6317 6324 6357 6411
1010.9988 6477 6545 6603 6643 6657 6645 6609 6554 6489 6420 6354 6296 6249
1017.2663 6215 6196 6189 6188 6189 6182 6164 6132 6087 6029 5963 5890 5813
1023.5338 5736 5662 5597 5543 5501 5470 5448 5434 5429 5437 5461 5503 5565
1029.8014 5646 5746 5860 5987 6121 6254 6380 6490 6580 6649 6699 6734 6763
1036.0688 6793 6828 6870 6921 6979 7043 7111 7183 7261 7344 7431 7520 7607
1042.3364 7689 7764 7830 7888 7939 7987 8033 8075 8113 8146 8171 8192 8210
1048.6039 8228 8247 8268 8289 8310 8329 8345 8359 8368 8373 8371 8362 8348
1054.8715 8330 8311 8294 8281 8272 8266 8261 8255 8248 8240 8230 8221 8213
1061.1389 8205 8195 8182 8162 8135 8102 8064 8024 7985 7946 7908 7869 7829
1067.4065 7788 7746 7704 7663 7623 7586 7550 7514 7478 7440 7399 7354 7305
1073.6740 7251 7195 7142 7094 7053 7019 6990 6964 6941 6922 6907 6897 6891
1079.9415 6888 6890 6899 6917 6946 6988 7040 7098 7157 7213 7265 7312 7356
1086.2090 7402 7451 7505 7562 7621 7680 7740 7799 7858 7916 7973 8025 8073
1092.4766 8114 8148 8176 8198 8219 8238 8261 8287 8318 8354 8392 8430 8466
1098.7440 8501 8538 8579 8626 8678 8731 8782 8827 8864 8894 8919 8941 8960
1105.0116 8977 8991 9000 9006 9008 9007 9005 9002 9000 8998 8996 8993 8987
1111.2791 8978 8966 8952 8938 8925 8915 8907 8899 8889 8877 8862 8844 8824
1117.5466 8802 8779 8755 8730 8705 8678 8649 8619 8586 8552 8514 8472 8423
1123.8141 8368 8309 8250 8196 8153 8125 8113 8116 8126 8135 8133 8113 8074
1130.0817 8020 7956 7894 7842 7809 7800 7818 7858 7914 7975 8032 8077 8108
1136.3491 8124 8129 8128 8125 8122 8121 8122 8126 8133 8145 8160 8182 8208
1142.6167 8240 8276 8316 8358 8401 8447 8495 8544 8592 8639 8681 8720 8756
1148.8842 8789 8818 8841 8857 8862 8859 8851 8841 8835 8835 8844 8861 8883
1155.1517 8910 8939 8968 8998 9027 9056 9084 9111 9137 9161 9184 9206 9229
1161.4192 9251 9272 9292 9309 9324 9338 9350 9361 9372 9382 9394 9405 9417
1167.6868 9427 9435 9439 9442 9443 9444 9449 9458 9470 9485 9499 9509 9514
1173.9542 9513 9509 9504 9498 9492 9483 9472 9457 9441 9425 9411 9400 9393
1180.2218 9391 9395 9405 9421 9440 9460 9478 9492 9499 9498 9489 9472 9449
1186.4893 9426 9405 9388 9379 9378 9385 9401 9423 9452 9483 9514 9540 9562
1192.7568 9578 9590 9598 9604 9608 9610 9610 9608 9602 9594 9584 9572 9560
1199.0243 9546 9529 9506 9477 9441 9400 9355 9309 9264 9224 9191 9167 9155
1205.2919 9153 9160 9173 9189 9206 9219 9228 9230 9223 9210 9193 9175 9161
1211.5593 9156 9160 9172 9191 9211 9231 9249 9262 9271 9273 9266 9250 9222
1217.8269 9185 9138 9084 9021 8950 8873 8790 8705 8619 8533 8446 8355 8254
1224.0944 8140 8010 7861 7698 7526 7354 7195 7060 6962 6912 6914 6967 7063
1230.3619 7192 7340 7496 7650 7795 7927 8043 8141 8218 8273 8302 8305 8280
1236.6294 8231 8159 8067 7957 7831 7691 7539 7381 7223 7075 6948 6855 6808
1242.8970 6820 6900 7051 7267 7534 7830 8131 8416 8669 8882 9054 9191 9299
1249.1644 9388 9462 9525 9580 9625 9661 9686 9700 9704 9697 9679 9650 9610
1255.4320 9561 9504 9447 9395 9357 9339 9346 9379 9433 9504 9582 9660 9730
1261.6995 9789 9837 9875 9903 9922 9936 9944 9950 9956 9962 9966 9963 9950
1267.9670 9924 9888 9851 9821 9803 9802 9816 9842 9876 9917 9962 10009 10055
1274.2345 10097 10134 10163 10186 10201 10211 10214 10212 10202 10187 10169
1279.5378 10149 10131 10115 10102 10090 10078 10066 10054 10041 10028 10015
1284.8411 10000 9984 9967 9950 9932 9915 9898 9879 9860 9838 9815 9792 9769
1291.1086 9748 9727 9705 9683 9660 9636 9611 9586 9562 9537 9511 9483 9452
1297.3761 9419 9384 9348 9312 9278 9248 9222 9201 9188 9182 9182 9186 9194
1303.6437 9202 9211 9222 9236 9256 9282 9314 9350 9387 9421 9449 9469 9481
1309.9111 9485 9482 9475 9462 9447 9429 9410 9392 9375 9360 9345 9328 9308
1316.1787 9284 9256 9223 9183 9136 9081 9020 8957 8897 8846 8808 8785 8779
1322.4462 8792 8824 8874 8937 9008 9082 9152 9217 9274 9321 9357 9382 9397
1328.7137 9403 9403 9396 9385 9368 9347 9322 9293 9261 9228 9195 9162 9129
1334.9812 9099 9074 9055 9046 9046 9052 9062 9070 9071 9063 9042 9011 8970
1341.2488 8923 8871 8817 8763 8713 8673 8648 8643 8658 8693 8742 8801 8863
1347.5162 8923 8981 9034 9083 9130 9172 9211 9244 9271 9290 9299 9298 9287
1353.7838 9267 9239 9206 9170 9133 9097 9061 9028 9001 8979 8964 8953 8945
1360.0513 8936 8924 8909 8888 8861 8829 8794 8760 8732 8712 8699 8694 8696
1366.3188 8708 8730 8763 8809 8864 8924 8982 9032 9073 9104 9127 9147 9166
1372.5863 9186 9210 9241 9279 9322 9366 9407 9445 9480 9514 9547 9578 9606
1378.8539 9631 9652 9672 9690 9707 9723 9735 9746 9753 9759 9762 9763 9763
1385.1213 9761 9757 9752 9747 9742 9740 9739 9739 9739 9738 9736 9732 9726
1391.3889 9718 9709 9699 9686 9670 9648 9623 9597 9574 9555 9539 9524 9509
1397.6564 9494 9481 9472 9471 9475 9483 9493 9502 9511 9519 9524 9525 9522
1403.9240 9515 9506 9500 9497 9498 9501 9503 9503 9503 9502 9504 9507 9511
1410.1914 9514 9516 9516 9515 9515 9516 9519 9522 9522 9519 9512 9504 9494
1416.4590 9485 9477 9468 9455 9436 9409 9381 9357 9339 9324 9310 9291 9268
1422.7264 9236 9196 9150 9103 9056 9011 8960 8901 8830 8748 8657 8555 8439
1428.9940 8303 8150 7997 7867 7779 7733 7730 7766 7839 7940 8052 8159 8257
1435.2615 8349 8451 8570 8695 8795 8856 8890 8910 8925 8935 8943 8948 8951
1441.5291 8956 8964 8977 8992 9010 9027 9041 9050 9053 9049 9039 9024 9006
1447.7965 8991 8984 8985 8991 8998 9002 9000 8992 8976 8954 8926 8896 8865
1454.0641 8832 8798 8763 8728 8692 8659 8629 8604 8581 8557 8533 8509 8488
1460.3315 8470 8456 8446 8441 8439 8439 8441 8442 8442 8437 8429 8417 8402
1466.5991 8382 8354 8315 8261 8195 8120 8042 7964 7884 7800 7709 7625 7579
1472.8666 7594 7655 7733 7813 7900 8003 8126 8263 8395 8506 8595 8672 8742
1479.1342 8809 8872 8927 8971 9005 9031 9050 9065 9077 9084 9086 9085 9080
1485.4016 9071 9058 9044 9029 9017 9007 8999 8991 8987 8991 9006 9028 9050
1491.6692 9069 9084 9096 9106 9114 9119 9121 9119 9112 9101 9090 9078 9064
1497.9366 9045 9020 8992 8963 8936 8909 8878 8838 8789 8736 8682 8629 8578
1504.2042 8525 8462 8378 8251 8060 7841 7675 7588 7558 7569 7614 7687 7786
1510.4717 7912 8071 8264 8481 8696 8883 9028 9135 9217 9282 9340 9393 9445
1516.7393 9497 9545 9582 9607 9621 9627 9627 9628 9634 9652 9678 9699 9711
1523.0067 9715 9717 9716 9716 9717 9720 9722 9724 9724 9722 9721 9722 9724
1529.2743 9727 9728 9728 9727 9723 9719 9713 9708 9705 9704 9706 9710 9714
1535.5417 9717 9720 9721 9721 9719 9715 9709 9700 9690 9681 9675 9671 9669
1541.8093 9669 9672 9675 9678 9678 9676 9672 9669 9665 9661 9656 9650 9642
1548.0768 9630 9616 9598 9579 9564 9554 9548 9544 9539 9530 9517 9501 9483
1554.3444 9468 9459 9453 9449 9443 9435 9424 9409 9390 9369 9357 9356 9361
1560.6118 9366 9371 9374 9375 9373 9369 9364 9359 9358 9359 9362 9365 9365
1566.8794 9362 9356 9348 9338 9325 9312 9303 9299 9296 9293 9287 9279 9268
1573.1469 9256 9243 9229 9215 9200 9189 9188 9199 9216 9230 9240 9246 9249
1579.4144 9251 9251 9250 9247 9241 9234 9224 9213 9202 9189 9177 9163 9147
1585.6819 9128 9106 9080 9050 9017 8979 8938 8891 8839 8782 8719 8652 8584
1591.9495 8518 8460 8417 8394 8399 8433 8495 8579 8675 8773 8867 8950 9019
1598.2170 9072 9111 9138 9155 9166 9171 9172 9171 9167 9162 9156 9149 9141
1604.4845 9130 9115 9097 9075 9050 9024 8998 8971 8942 8911 8877 8841 8806
1610.7521 8771 8736 8698 8654 8603 8549 8494 8442 8392 8338 8269 8172 8057
1617.0195 7961 7909 7890 7889 7900 7922 7959 8010 8073 8145 8227 8326 8452
1623.2871 8602 8752 8875 8968 9039 9099 9153 9204 9252 9295 9331 9360 9383
1629.5546 9402 9419 9433 9446 9455 9462 9464 9464 9461 9457 9452 9447 9448
1635.8221 9453 9462 9469 9474 9477 9479 9479 9478 9475 9472 9468 9466 9465
1642.0896 9464 9461 9456 9446 9431 9411 9385 9355 9327 9311 9314 9336 9366
1648.3572 9396 9422 9443 9459 9471 9480 9486 9489 9490 9496 9520 9555 9580
1654.6246 9597 9608 9616 9622 9627 9633 9639 9648 9658 9668 9677 9682 9684
1660.8922 9683 9681 9680 9684 9694 9708 9721 9731 9738 9741 9742 9739 9734
1667.1597 9727 9717 9705 9693 9684 9680 9680 9680 9678 9673 9668 9664 9659
1673.4272 9655 9649 9641 9630 9621 9615 9612 9611 9609 9607 9604 9600 9595
1679.6947 9590 9585 9583 9580 9577 9571 9560 9545 9526 9516 9525 9539 9547
1685.9623 9550 9550 9548 9547 9545 9545 9545 9545 9546 9547 9547 9547 9546
1692.2297 9544 9542 9539 9536 9532 9528 9525 9524 9528 9534 9537 9538 9535
1698.4973 9530 9521 9510 9504 9510 9520 9526 9526 9523 9518 9512 9507 9504
1704.7648 9503 9502 9503 9505 9508 9512 9514 9515 9513 9509 9503 9496 9489
1711.0323 9483 9478 9472 9466 9460 9453 9445 9437 9431 9425 9420 9415 9411
1717.2998 9411 9420 9437 9455 9468 9475 9478 9479 9477 9475 9473 9470 9468
1723.5674 9466 9463 9458 9454 9450 9448 9447 9447 9447 9444 9438 9430 9423
1729.8348 9419 9419 9423 9427 9430 9429 9425 9418 9409 9401 9396 9392 9388
1736.1024 9382 9376 9369 9362 9353 9344 9336 9332 9334 9340 9346 9349 9350
1742.3699 9348 9345 9343 9342 9343 9343 9342 9339 9336 9334 9334 9335 9338
1748.6375 9339 9336 9332 9327 9324 9326 9333 9342 9349 9353 9354 9353 9352
1754.9049 9351 9351 9353 9356 9360 9364 9366 9366 9365 9362 9359 9355 9352
1761.1725 9352 9356 9362 9369 9374 9377 9378 9378 9378 9379 9380 9380 9379
1767.4399 9378 9378 9381 9385 9390 9394 9394 9392 9388 9384 9384 9388 9392
1773.7075 9395 9395 9395 9395 9396 9399 9402 9404 9405 9403 9400 9395 9391
1779.9750 9388 9387 9389 9392 9395 9398 9400 9401 9402 9403 9404 9405 9406
1786.2426 9406 9406 9407 9406 9406 9404 9400 9396 9391 9386 9383 9381 9384
1792.5100 9391 9400 9408 9413 9414 9412 9407 9402 9399 9399 9402 9405 9408
1798.7776 9410 9412 9414 9417 9419 9422 9424 9425 9425 9426 9427 9429 9430
1805.0450 9432 9432 9433 9432 9431 9428 9425 9421 9416 9413 9410 9410 9412
1811.3126 9414 9415 9414 9414 9414 9416 9419 9423 9425 9425 9424 9423 9422
1817.5801 9423 9426 9429 9433 9437 9441 9445 9448 9450 9451 9451 9450 9448
1823.8477 9445 9443 9443 9446 9451 9457 9459 9459 9455 9447 9437 9429 9425
1830.1151 9428 9433 9438 9440 9442 9444 9450 9458 9466 9473 9473 9465 9452
1836.3827 9438 9426 9422 9423 9428 9431 9432 9429 9424 9419 9416 9414 9411
1842.6501 9406 9399 9392 9389 9391 9396 9401 9404 9405 9404 9403 9402 9404
1848.9177 9408 9414 9420 9425 9427 9426 9423 9418 9415 9412 9409 9406 9403
1855.1852 9399 9396 9393 9392 9393 9394 9397 9401 9405 9409 9410 9411 9411
1861.4528 9413 9416 9420 9422 9420 9415 9407 9399 9393 9390 9389 9390 9390
1867.7202 9388 9384 9381 9380 9382 9386 9390 9394 9397 9399 9400 9402 9405
1873.9878 9408 9411 9411 9408 9401 9392 9384 9380 9380 9383 9386 9386 9382
1880.2552 9375 9366 9358 9352 9347 9344 9342 9342 9345 9350 9356 9359 9359
1886.5228 9357 9352 9347 9342 9340 9343 9352 9366 9381 9395 9405 9411 9417
1892.7903 9423 9431 9439 9446 9447 9441 9429 9413 9398 9388 9384 9385 9389
1899.0579 9394 9397 9398 9396 9394 9391 9391 9393 9395 9397 9397 9395 9391
1905.3253 9388 9387 9390 9395 9402 9407 9408 9406 9399 9388 9376 9365 9357
1911.5929 9353 9353 9355 9359 9362 9363 9362 9359 9354 9350 9347 9349 9356
1917.8604 9370 9384 9395 9401 9400 9396 9390 9383 9375 9366 9359 9354 9355
1924.1279 9363 9377 9393 9408 9421 9428 9429 9423 9414 9403 9395 9394 9401
1930.3954 9416 9433 9446 9450 9446 9436 9427 9424 9427 9433 9436 9430 9412
1936.6630 9383 9352 9329 9322 9336 9363 9393 9416 9427 9427 9419 9410 9402
1942.9304 9395 9385 9371 9355 9340 9328 9322 9322 9326 9332 9337 9340 9344
1949.1980 9352 9368 9391 9413 9424 9416 9389 9352 9321 9308 9317 9341 9369
1955.4655 9386 9388 9377 9364 9357 9361 9374 9388 9395 9393 9386 9380 9384
1961.7330 9400 9421 9439 9444 9435 9415 9396 9384 9382 9382 9371 9341 9294
1968.0005 9248 9226 9241 9297 9378 9463 9527 9559 9561 9545 9526 9512 9500
1974.2681 9484 9460 9427 9391 9362 9347 9349 9367 9392 9415 9432 9440 9443
1980.5355 9446 9452 9463 9477 9489 9494 9485 9459 9420 9377 9344 9332 9347
1986.8031 9383 9428 9467 9489 9490 9473 9446 9416 9390 9374 9372 9386 9408
1993.0706 9428 9440 9442 9439 9435 9435 9435 9429 9413 9387 9356 9330 9319
1999.3381 9326 9351 9388 9431 9473 9510 9537 9552 9549 9530 9497 9460 9431
2005.6056 9419 9423 9437 9448 9449 9444 9445 9460 9491 9525 9547 9548 9531
2011.8732 9512 9503 9509 9519 9516 9487 9431 9362 9300 9257 9239 9239 9246
2018.1406 9254 9265 9280 9302 9331 9364 9395 9421 9438 9448 9453 9459 9470
2024.4082 9482 9485 9467 9425 9369 9322 9305 9326 9374 9421 9441 9421 9371
2030.6757 9314 9275 9272 9302 9350 9395 9420 9419 9400 9381 9377 9393 9424
2036.9432 9455 9473 9470 9451 9425 9401 9381 9366 9352 9340 9334 9336 9347
2043.2107 9362 9374 9379 9379 9378 9380 9385 9388 9384 9370 9345 9317 9294
2049.4783 9283 9291 9314 9348 9378 9394 9387 9359 9320 9284 9264 9264 9278
2055.7458 9295 9305 9304 9295 9284 9275 9269 9265 9263 9266 9276 9297 9330
2062.0132 9366 9397 9411 9402 9369 9322 9274 9239 9223 9224 9234 9244 9249
2068.2808 9248 9247 9249 9257 9265 9269 9265 9256 9247 9246 9254 9267 9278
2074.5483 9279 9269 9252 9235 9224 9224 9233 9248 9262 9271 9274 9271 9266
2080.8159 9259 9253 9248 9246 9245 9245 9245 9243 9239 9233 9230 9228 9228
2087.0833 9226 9220 9211 9204 9204 9212 9222 9228 9225 9216 9207 9204 9212
2093.3508 9225 9238 9242 9233 9213 9186 9160 9144 9142 9157 9185 9217 9242
2099.6184 9252 9245 9225 9200 9181 9173 9177 9188 9199 9204 9198 9184 9168
2105.8860 9155 9152 9157 9167 9176 9182 9183 9183 9185 9189 9195 9200 9201
2112.1533 9196 9184 9169 9153 9141 9136 9139 9147 9157 9166 9172 9177 9180
2118.4209 9184 9187 9188 9185 9179 9170 9163 9157 9153 9149 9145 9141 9138
2124.6885 9138 9141 9145 9148 9147 9145 9143 9145 9151 9159 9166 9170 9171
2130.9561 9172 9174 9178 9180 9178 9172 9164 9160 9162 9170 9177 9176 9165
2137.2234 9149 9136 9136 9152 9179 9205 9221 9222 9212 9199 9191 9188 9188
2143.4910 9185 9176 9158 9136 9115 9103 9105 9123 9156 9196 9235 9268 9291
2149.7585 9304 9304 9287 9250 9194 9130 9075 9044 9049 9094 9173 9273 9371
2156.0261 9444 9472 9452 9394 9321 9250 9189 9134 9082 9043 9032 9059 9119
2162.2935 9191 9249 9276 9270 9247 9224 9212 9213 9218 9217 9203 9174 9137
2168.5610 9100 9075 9074 9100 9148 9210 9272 9322 9353 9360 9341 9296 9231
2174.8286 9154 9082 9030 9007 9012 9034 9059 9074 9075 9065 9052 9040 9035
2181.0962 9035 9039 9047 9057 9066 9072 9071 9062 9047 9031 9022 9031 9068
2187.3635 9133 9213 9281 9303 9258 9155 9026 8915 8855 8854 8898 8960 9013
2193.6311 9046 9061 9070 9078 9082 9076 9054 9021 8989 8972 8979 9004 9035
2199.8987 9055 9056 9036 9005 8972 8943 8922 8906 8896 8891 8891 8895 8900
2206.1663 8904 8903 8898 8889 8880 8878 8885 8903 8928 8954 8971 8976 8969
2212.4336 8957 8945 8937 8933 8930 8925 8919 8913 8909 8908 8909 8910 8909
2218.7012 8907 8906 8906 8908 8911 8914 8915 8915 8914 8915 8915 8912 8903
2224.9688 8891 8879 8874 8882 8900 8923 8946 8961 8968 8966 8959 8947 8934
2231.2363 8924 8918 8917 8916 8911 8900 8884 8869 8859 8854 8853 8852 8848
2237.5037 8846 8849 8860 8875 8888 8892 8888 8879 8872 8873 8882 8894 8902
2243.7712 8901 8892 8877 8863 8853 8853 8861 8876 8891 8901 8905 8902 8899
2250.0388 8898 8903 8911 8916 8913 8899 8877 8855 8840 8837 8845 8861 8878
2256.3064 8891 8899 8901 8898 8892 8885 8879 8874 8871 8869 8868 8868 8868
2262.5737 8868 8867 8863 8857 8850 8844 8842 8843 8846 8850 8852 8853 8855
2268.8413 8859 8864 8868 8869 8865 8858 8850 8845 8844 8847 8851 8852 8850
2275.1089 8843 8833 8823 8815 8811 8809 8810 8810 8809 8806 8804 8802 8801
2281.3765 8802 8805 8809 8815 8822 8829 8833 8833 8828 8820 8810 8800 8794
2287.6438 8789 8787 8785 8786 8788 8793 8800 8807 8811 8813 8812 8809 8805
2293.9114 8801 8796 8791 8787 8782 8780 8780 8782 8785 8788 8789 8789 8787
2300.1790 8784 8779 8773 8768 8766 8766 8771 8776 8781 8783 8779 8770 8759
2306.4465 8750 8743 8740 8740 8741 8743 8745 8747 8747 8747 8746 8744 8741
2312.7139 8738 8735 8732 8729 8726 8725 8726 8730 8735 8739 8739 8734 8725
2318.9814 8714 8703 8694 8690 8690 8693 8696 8697 8695 8689 8682 8675 8671
2325.2490 8669 8668 8667 8667 8669 8673 8680 8684 8684 8677 8663 8646 8629
2331.5166 8618 8615 8620 8628 8636 8639 8637 8628 8616 8605 8601 8604 8615
2337.7839 8630 8645 8655 8660 8657 8648 8636 8625 8617 8615 8618 8627 8639
2344.0515 8651 8663 8674 8686 8698 8708 8714 8714 8709 8700 8690 8680 8674
2350.3191 8674 8683 8695 8706 8709 8699 8681 8661 8649 8650 8661 8673 8673
2356.5867 8653 8616 8574 8544 8538 8556 8587 8615 8633 8641 8647 8656 8669
2362.8540 8681 8684 8676 8661 8645 8633 8630 8634 8645 8660 8676 8689 8696
2369.1216 8696 8692 8688 8688 8694 8705 8717 8727 8734 8738 8740 8743 8748
2375.3892 8756 8765 8775 8784 8791 8795 8797 8796 8796 8797 8801 8805 8810
2381.6567 8813 8814 8815 8816 8819 8824 8831 8836 8840 8841 8841 8841 8841
2387.9241 8843 8845 8846 8846 8846 8845 8846 8848 8852 8856 8859 8861 8863
2394.1917 8866 8869 8874 8880 8883 8883 8880 8876 8872 8872 8875 8880 8885
2400.4592 8889 8891 8892 8892 8893 8896 8901 8907 8913 8919 8923 8926 8927
2406.7268 8927 8926 8926 8927 8930 8935 8939 8943 8945 8944 8941 8935 8929
2412.9941 8924 8921 8921 8923 8926 8929 8931 8931 8929 8927 8925 8924 8922
2419.2617 8921 8919 8917 8915 8913 8912 8913 8915 8917 8918 8917 8914 8910
2425.5293 8906 8905 8906 8908 8910 8912 8912 8914 8918 8923 8929 8933 8934
2431.7969 8932 8928 8923 8919 8916 8914 8913 8912 8913 8913 8914 8916 8917
2438.0642 8920 8925 8932 8940 8949 8956 8960 8961 8958 8953 8946 8939 8934
2444.3318 8932 8932 8933 8934 8935 8936 8936 8938 8942 8946 8950 8953 8957
2450.5994 8960 8964 8967 8970 8971 8969 8966 8963 8959 8956 8955 8956 8958
2456.8669 8960 8962 8962 8962 8962 8963 8964 8965 8965 8964 8961 8959 8959
2463.1343 8960 8963 8964 8965 8963 8960 8957 8957 8958 8961 8964 8967 8968
2469.4019 8967 8963 8959 8956 8955 8958 8963 8971 8978 8985 8989 8993 8995
2475.6694 8998 9000 9002 9004 9005 9006 9006 9006 9006 9005 9005 9004 9003
2481.9370 9002 9000 9001 9003 9009 9017 9026 9035 9040 9043 9043 9042 9042
2488.2043 9042 9044 9045 9046 9047 9047 9046 9044 9040 9034 9025 9017 9010
2494.4719 9007 9010 9017 9027 9036 9044 9049 9051 9051 9051 9050 9049 9050
2500.7395 9051 9054 9057 9061 9063 9064 9062 9060 9057 9055 9055 9058 9063
2507.0071 9068 9074 9078 9082 9083 9084 9085 9085 9086 9087 9089 9092 9098
2513.2744 9104 9111 9117 9121 9123 9123 9120 9115 9108 9098 9090 9085 9088
2519.5420 9097 9110 9121 9126 9124 9116 9107 9099 9096 9096 9096 9096 9095
2525.8096 9095 9097 9102 9107 9112 9114 9115 9114 9114 9114 9114 9112 9108
2532.0771 9105 9105 9110 9118 9126 9131 9131 9129 9127 9128 9134 9141 9148
2538.3445 9151 9150 9149 9149 9154 9163 9172 9180 9184 9184 9181 9176 9170
2544.6121 9163 9157 9151 9149 9151 9156 9163 9171 9178 9182 9185 9185 9183
2550.8796 9181 9179 9179 9182 9188 9195 9203 9208 9211 9211 9208 9202 9195
2557.1472 9187 9180 9177 9177 9179 9181 9180 9176 9169 9162 9158 9158 9162
2563.4146 9168 9175 9181 9186 9190 9192 9193 9192 9189 9186 9184 9184 9187
2569.6821 9191 9194 9194 9191 9184 9176 9168 9162 9160 9162 9165 9167 9169
2575.9497 9168 9165 9162 9160 9160 9162 9165 9170 9174 9178 9181 9182 9182
2582.2173 9181 9181 9181 9183 9185 9188 9192 9195 9198 9200 9203 9205 9208
2588.4849 9211 9214 9214 9213 9211 9209 9207 9208 9211 9216 9223 9230 9236
2594.7522 9240 9240 9239 9235 9233 9232 9232 9234 9235 9234 9233 9233 9234
2601.0198 9236 9240 9243 9246 9248 9250 9251 9251 9250 9250 9251 9254 9259
2607.2874 9264 9267 9269 9267 9265 9264 9265 9269 9274 9279 9285 9289 9291
2613.5549 9292 9293 9293 9293 9294 9294 9295 9295 9296 9297 9299 9301 9304
2619.8223 9306 9306 9306 9305 9305 9305 9307 9310 9312 9314 9315 9316 9317
2626.0898 9318 9319 9320 9321 9322 9323 9323 9324 9325 9326 9328 9331 9333
2632.3574 9335 9337 9339 9340 9340 9341 9342 9342 9341 9340 9340 9341 9343
2638.6250 9346 9349 9352 9353 9352 9351 9351 9353 9355 9359 9363 9365 9366
2644.8923 9365 9364 9363 9362 9362 9363 9365 9366 9368 9369 9370 9371 9373
2651.1599 9375 9377 9378 9379 9378 9377 9376 9376 9377 9378 9379 9380 9381
2657.4275 9382 9383 9385 9387 9388 9387 9386 9384 9381 9378 9376 9376 9377
2663.6951 9380 9383 9387 9391 9394 9397 9398 9398 9396 9394 9391 9390 9391
2669.9624 9393 9396 9399 9402 9404 9406 9408 9408 9407 9406 9404 9403 9402
2676.2300 9402 9403 9404 9405 9406 9406 9407 9408 9409 9411 9414 9417 9420
2682.4976 9422 9423 9423 9422 9420 9419 9418 9418 9419 9421 9424 9426 9426
2688.7651 9426 9425 9424 9425 9426 9428 9429 9431 9432 9433 9433 9433 9433
2695.0325 9434 9436 9438 9441 9442 9442 9440 9438 9436 9435 9435 9436 9437
2701.3000 9439 9440 9440 9441 9440 9440 9439 9440 9441 9444 9446 9448 9450
2707.5676 9451 9452 9452 9453 9454 9453 9453 9452 9452 9452 9454 9456 9458
2713.8352 9461 9463 9466 9468 9470 9471 9471 9470 9469 9468 9466 9464 9462
2720.1025 9462 9462 9463 9464 9465 9466 9466 9466 9466 9465 9464 9464 9465
2726.3701 9469 9474 9478 9480 9479 9476 9471 9466 9462 9459 9457 9456 9457
2732.6377 9459 9462 9465 9467 9466 9462 9456 9448 9442 9440 9442 9449 9459
2738.9053 9467 9471 9469 9463 9454 9447 9442 9441 9444 9448 9452 9454 9455
2745.1726 9454 9452 9450 9447 9446 9446 9447 9450 9453 9456 9458 9459 9459
2751.4402 9459 9459 9459 9460 9463 9466 9469 9471 9472 9472 9472 9473 9474
2757.7078 9475 9476 9476 9475 9473 9470 9468 9467 9467 9468 9468 9467 9466
2763.9753 9465 9464 9463 9463 9463 9463 9464 9464 9465 9465 9465 9465 9466
2770.2427 9467 9468 9469 9469 9469 9467 9466 9465 9464 9465 9464 9463 9460
2776.5103 9457 9453 9449 9447 9448 9450 9453 9456 9457 9457 9455 9453 9451
2782.7778 9451 9452 9452 9453 9453 9453 9453 9455 9458 9462 9468 9474 9478
2789.0454 9481 9480 9479 9476 9475 9475 9476 9478 9479 9479 9479 9481 9483
2795.3127 9485 9488 9490 9490 9490 9489 9489 9489 9490 9491 9492 9493 9495
2801.5803 9497 9498 9500 9501 9501 9501 9501 9500 9499 9500 9501 9503 9506
2807.8479 9507 9507 9507 9506 9506 9507 9509 9511 9513 9514 9514 9514 9512
2814.1155 9510 9507 9504 9503 9503 9505 9509 9513 9516 9518 9518 9516 9514
2820.3828 9512 9510 9509 9507 9505 9500 9495 9489 9484 9480 9477 9474 9471
2826.6504 9467 9461 9456 9450 9445 9441 9436 9431 9426 9420 9415 9410 9407
2832.9180 9404 9401 9396 9391 9385 9378 9372 9367 9364 9363 9363 9366 9368
2839.1855 9370 9372 9372 9374 9376 9379 9382 9385 9388 9390 9394 9400 9409
2845.4529 9419 9428 9434 9438 9439 9440 9440 9441 9442 9441 9440 9439 9438
2851.7205 9438 9438 9439 9439 9439 9439 9438 9437 9436 9434 9432 9429 9425
2857.9880 9420 9414 9409 9405 9403 9403 9403 9403 9401 9398 9393 9388 9382
2864.2556 9377 9372 9367 9362 9356 9349 9342 9334 9326 9319 9312 9305 9299
2870.5229 9294 9288 9283 9277 9271 9266 9261 9257 9254 9252 9252 9253 9254
2876.7905 9255 9257 9260 9262 9265 9266 9267 9266 9266 9267 9268 9268 9268
2883.0581 9268 9266 9265 9264 9264 9263 9261 9259 9258 9258 9261 9265 9270
2889.3257 9274 9276 9277 9276 9275 9274 9273 9271 9270 9268 9267 9266 9266
2895.5930 9266 9265 9263 9258 9253 9248 9244 9239 9235 9231 9229 9229 9233
2901.8606 9238 9245 9250 9254 9256 9258 9261 9265 9270 9276 9283 9289 9294
2908.1282 9299 9304 9310 9315 9321 9326 9330 9333 9334 9334 9333 9333 9333
2914.3958 9334 9335 9335 9335 9334 9333 9331 9331 9330 9329 9328 9325 9322
2920.6631 9318 9314 9309 9305 9299 9294 9289 9285 9280 9276 9271 9265 9260
2926.9307 9256 9253 9252 9250 9247 9242 9236 9229 9224 9219 9214 9211 9207
2933.1982 9205 9203 9203 9203 9204 9204 9202 9199 9195 9192 9190 9190 9192
2939.4658 9195 9199 9203 9205 9206 9205 9203 9199 9196 9193 9191 9190 9189
2945.7332 9189 9190 9192 9195 9198 9201 9202 9203 9203 9203 9204 9207 9211
2952.0007 9217 9225 9234 9241 9246 9248 9247 9246 9244 9243 9242 9241 9240
2958.2683 9240 9239 9237 9233 9228 9221 9214 9207 9199 9189 9178 9165 9153
2964.5359 9145 9141 9142 9146 9150 9152 9153 9153 9153 9154 9156 9158 9158
2970.8032 9155 9149 9142 9135 9132 9133 9139 9146 9154 9159 9162 9163 9164
2977.0708 9167 9173 9180 9188 9196 9203 9209 9212 9216 9219 9222 9227 9231
2983.3384 9235 9237 9238 9237 9237 9238 9242 9247 9254 9260 9266 9270 9272
2989.6060 9274 9274 9274 9273 9272 9272 9271 9268 9263 9256 9246 9236 9228
2995.8733 9224 9224 9226 9231 9236 9241 9246 9252 9260 9268 9276 9283 9289
3002.1409 9293 9297 9301 9306 9311 9315 9316 9316 9315 9314 9314 9315 9317
3008.4084 9318 9317 9314 9311 9309 9309 9308 9307 9305 9301 9296 9291 9287
3014.6760 9284 9281 9279 9277 9276 9275 9276 9278 9281 9285 9291 9296 9301
3020.9434 9305 9309 9312 9316 9320 9324 9329 9332 9334 9336 9337 9338 9338
3027.2109 9338 9338 9336 9334 9331 9327 9322 9317 9311 9307 9306 9306 9308
3033.4785 9309 9309 9309 9307 9306 9304 9301 9298 9294 9290 9288 9286 9286
3039.7461 9286 9287 9288 9287 9285 9281 9275 9271 9268 9269 9272 9276 9281
3046.0134 9287 9293 9299 9304 9307 9308 9307 9306 9305 9307 9310 9314 9317
3052.2810 9319 9319 9316 9314 9312 9313 9315 9319 9323 9325 9325 9323 9321
3058.5486 9317 9314 9312 9310 9309 9308 9308 9308 9306 9303 9299 9295 9291
3064.8162 9289 9287 9286 9285 9283 9280 9276 9271 9265 9259 9254 9250 9246
3071.0835 9243 9238 9233 9226 9218 9210 9202 9196 9191 9189 9190 9192 9196
3077.3511 9200 9204 9209 9213 9218 9224 9230 9237 9244 9251 9257 9263 9269
3083.6187 9274 9277 9277 9274 9268 9261 9255 9252 9252 9255 9258 9263 9267
3089.8862 9271 9273 9274 9272 9268 9261 9254 9247 9242 9239 9240 9243 9249
3096.1536 9256 9263 9268 9271 9271 9270 9267 9263 9258 9252 9247 9242 9237
3102.4211 9234 9231 9230 9228 9226 9224 9219 9214 9208 9203 9200 9197 9196
3108.6887 9194 9192 9191 9191 9192 9193 9192 9190 9185 9180 9173 9167 9161
3114.9563 9157 9156 9158 9163 9168 9172 9172 9167 9159 9149 9138 9127 9119
3121.2236 9115 9115 9119 9124 9130 9133 9133 9130 9126 9122 9119 9115 9113
3127.4912 9112 9113 9116 9119 9121 9121 9118 9113 9105 9098 9092 9088 9085
3133.7588 9084 9084 9084 9085 9086 9088 9089 9089 9088 9086 9084 9082 9082
3140.0264 9082 9083 9082 9079 9074 9069 9065 9063 9061 9059 9057 9054 9051
3146.2937 9047 9045 9044 9043 9042 9041 9039 9037 9035 9034 9032 9031 9029
3152.5613 9028 9026 9025 9025 9023 9021 9019 9016 9015 9016 9018 9019 9020
3158.8289 9018 9016 9014 9013 9013 9012 9012 9012 9010 9008 9006 9003 9002
3165.0964 9001 9001 9001 9000 9000 9000 9002 9006 9012 9018 9021 9021 9017
3171.3638 9012 9006 9001 8998 8996 8995 8995 8996 8999 9003 9008 9012 9015
3177.6313 9016 9017 9018 9020 9024 9027 9030 9030 9028 9024 9020 9017 9016
3183.8989 9016 9017 9019 9021 9023 9027 9033 9041 9049 9055 9056 9052 9045
3190.1665 9038 9033 9031 9031 9033 9036 9038 9042 9046 9050 9054 9057 9059
3196.4338 9060 9060 9059 9057 9056 9055 9056 9059 9064 9069 9072 9073 9072
3202.7014 9070 9071 9074 9080 9088 9095 9101 9105 9107 9109 9111 9113 9116
3208.9690 9120 9125 9130 9134 9137 9139 9139 9139 9141 9143 9147 9150 9152
3215.2366 9152 9152 9152 9153 9156 9161 9166 9172 9177 9183 9187 9190 9191
3221.5039 9192 9193 9194 9195 9196 9196 9195 9195 9196 9199 9203 9207 9212
3227.7715 9217 9221 9225 9228 9229 9229 9229 9229 9229 9228 9228 9227 9229
3234.0391 9232 9237 9242 9245 9247 9245 9242 9239 9236 9234 9235 9237 9241
3240.3066 9243 9244 9243 9240 9237 9236 9237 9240 9242 9244 9243 9241 9238
3246.5740 9235 9233 9233 9234 9236 9237 9235 9230 9224 9220 9219 9222 9226
3252.8416 9228 9226 9221 9214 9210 9208 9208 9209 9209 9208 9206 9207 9209
3259.1091 9214 9219 9224 9229 9232 9235 9236 9235 9231 9225 9219 9213 9210
3265.3767 9209 9209 9210 9211 9212 9213 9214 9215 9215 9215 9213 9212 9212
3271.6440 9213 9215 9218 9220 9222 9223 9223 9222 9220 9219 9219 9220 9222
3277.9116 9223 9224 9224 9225 9227 9230 9232 9233 9230 9225 9219 9216 9219
3284.1792 9228 9242 9254 9261 9259 9250 9237 9225 9219 9219 9223 9228 9233
3290.4468 9235 9234 9233 9232 9232 9234 9236 9239 9241 9241 9240 9239 9240
3296.7141 9243 9247 9250 9251 9249 9246 9242 9241 9243 9248 9253 9257 9259
3302.9817 9257 9253 9250 9249 9251 9257 9263 9269 9272 9273 9273 9276 9280
3309.2493 9286 9290 9293 9292 9291 9289 9290 9291 9294 9295 9297 9298 9301
3315.5168 9305 9310 9316 9321 9325 9328 9328 9328 9328 9328 9330 9332 9334
3321.7842 9335 9333 9329 9325 9322 9321 9324 9329 9337 9346 9353 9356 9353
3328.0518 9344 9332 9320 9312 9309 9310 9312 9315 9316 9315 9314 9311 9306
3334.3193 9299 9290 9282 9275 9270 9267 9264 9262 9261 9261 9261 9260 9256
3340.5869 9251 9244 9238 9235 9235 9237 9239 9239 9238 9236 9232 9228 9224
3346.8542 9219 9215 9212 9211 9212 9214 9218 9222 9226 9229 9231 9229 9225
3353.1218 9219 9214 9211 9212 9214 9217 9218 9218 9216 9213 9211 9210 9211
3359.3894 9212 9212 9210 9207 9204 9203 9204 9206 9208 9209 9208 9203 9197
3365.6570 9192 9190 9191 9196 9204 9213 9220 9223 9222 9218 9214 9212 9212
3371.9243 9214 9217 9218 9219 9219 9221 9225 9227 9228 9227 9223 9219 9216
3378.1919 9214 9214 9216 9218 9221 9225 9228 9231 9232 9229 9223 9217 9213
3384.4595 9212 9214 9217 9221 9224 9226 9226 9227 9227 9228 9230 9232 9234
3390.7271 9236 9238 9240 9240 9239 9238 9235 9233 9231 9229 9227 9227 9228
3396.9944 9231 9237 9243 9248 9250 9251 9249 9248 9247 9247 9247 9246 9245
3403.2620 9245 9245 9247 9250 9253 9256 9258 9260 9262 9265 9270 9275 9280
3409.5295 9284 9287 9289 9289 9288 9287 9285 9283 9280 9277 9275 9275 9277
3415.7971 9280 9285 9292 9298 9304 9309 9311 9310 9306 9301 9297 9296 9297
3422.0645 9301 9305 9308 9308 9307 9305 9303 9303 9304 9306 9310 9313 9315
3428.3320 9316 9316 9314 9312 9311 9309 9307 9303 9299 9296 9298 9304 9313
3434.5996 9322 9329 9333 9334 9333 9331 9328 9325 9321 9318 9316 9316 9316
3440.8672 9317 9318 9318 9318 9318 9318 9318 9317 9316 9315 9317 9321 9326
3447.1345 9332 9337 9341 9343 9345 9345 9343 9339 9335 9332 9332 9335 9339
3453.4021 9343 9344 9341 9336 9332 9329 9329 9330 9332 9332 9332 9332 9333
3459.6697 9336 9339 9343 9346 9349 9351 9351 9350 9349 9347 9345 9343 9342
3465.9373 9340 9336 9333 9329 9326 9326 9328 9333 9339 9346 9354 9360 9363
3472.2046 9363 9360 9357 9354 9353 9353 9353 9352 9351 9349 9348 9346 9344
3478.4722 9340 9336 9333 9332 9336 9341 9346 9349 9348 9346 9347 9350 9356
3484.7397 9363 9368 9369 9366 9361 9357 9355 9356 9359 9361 9363 9363 9361
3491.0073 9358 9355 9354 9355 9357 9359 9360 9358 9353 9347 9343 9341 9342
3497.2747 9345 9349 9352 9354 9357 9359 9362 9364 9365 9366 9367 9368 9370
3503.5422 9373 9375 9378 9378 9377 9375 9373 9373 9376 9381 9388 9393 9395
3509.8098 9393 9389 9386 9385 9387 9392 9397 9402 9404 9405 9404 9403 9403
3516.0774 9403 9401 9399 9395 9392 9391 9393 9397 9399 9400 9398 9395 9389
3522.3447 9384 9380 9378 9380 9386 9393 9401 9405 9405 9400 9391 9383 9378
3528.6123 9378 9381 9385 9388 9389 9388 9386 9384 9383 9383 9382 9380 9378
3534.8799 9374 9371 9370 9370 9374 9380 9386 9391 9393 9391 9387 9383 9381
3541.1475 9382 9383 9385 9383 9379 9372 9366 9360 9355 9353 9353 9356 9362
3547.4148 9370 9379 9386 9389 9388 9383 9376 9369 9364 9362 9363 9368 9373
3553.6824 9380 9387 9394 9400 9405 9407 9406 9402 9395 9386 9378 9373 9373
3559.9500 9378 9387 9398 9406 9411 9410 9405 9398 9390 9382 9374 9367 9360
3566.2175 9358 9361 9371 9386 9399 9408 9412 9411 9408 9405 9405 9408 9412
3572.4851 9416 9417 9415 9411 9405 9397 9390 9385 9382 9383 9386 9390 9395
3578.7524 9399 9404 9408 9411 9411 9408 9403 9398 9396 9398 9402 9404 9400
3585.0200 9391 9377 9364 9357 9360 9371 9386 9400 9411 9417 9420 9418 9412
3591.2876 9404 9396 9390 9388 9390 9392 9393 9393 9393 9394 9397 9401 9403
3597.5552 9404 9403 9402 9402 9403 9403 9403 9402 9399 9395 9392 9391 9394
3603.8225 9397 9401 9404 9405 9404 9404 9404 9406 9410 9413 9413 9412 9410
3610.0901 9409 9408 9408 9407 9405 9402 9400 9401 9405 9412 9420 9425 9427
3616.3577 9425 9420 9413 9404 9395 9386 9380 9379 9384 9391 9400 9408 9415
3622.6252 9420 9424 9426 9427 9428 9429 9429 9428 9425 9420 9411 9399 9386
3628.8926 9378 9380 9387 9397 9406 9415 9421 9423 9420 9414 9407 9402 9401
3635.1602 9403 9406 9409 9412 9414 9416 9417 9417 9415 9413 9411 9408 9408
3641.4277 9410 9414 9421 9426 9428 9425 9418 9407 9395 9384 9377 9374 9377
3647.6953 9381 9384 9385 9384 9384 9386 9392 9400 9409 9417 9425 9431 9435
3653.9626 9435 9429 9417 9401 9387 9380 9383 9390 9399 9407 9413 9416 9417
3660.2302 9418 9419 9420 9420 9420 9419 9418 9418 9420 9422 9424 9424 9421
3666.4978 9416 9411 9406 9402 9399 9394 9387 9381 9378 9380 9384 9389 9394
3672.7654 9399 9403 9409 9417 9424 9425 9417 9406 9397 9391 9387 9383 9380
3679.0327 9378 9379 9382 9388 9396 9404 9412 9419 9423 9424 9423 9420 9417
3685.3003 9413 9408 9402 9394 9386 9379 9379 9385 9394 9399 9400 9394 9386
3691.5679 9379 9377 9379 9383 9387 9389 9387 9383 9379 9381 9387 9398 9408
3697.8354 9416 9419 9420 9418 9417 9416 9415 9414 9412 9410 9407 9405 9402
3704.1028 9399 9397 9396 9399 9404 9410 9416 9421 9423 9421 9413 9400 9385
3710.3704 9371 9362 9361 9370 9384 9397 9406 9409 9410 9411 9411 9411 9411
3716.6379 9409 9404 9398 9392 9386 9381 9379 9378 9377 9377 9378 9381 9384
3722.9055 9386 9385 9382 9379 9375 9374 9375 9378 9382 9388 9394 9402 9409
3729.1729 9415 9419 9418 9414 9407 9399 9395 9396 9397 9396 9390 9378 9362
3735.4404 9349 9343 9344 9350 9357 9364 9370 9374 9376 9377 9378 9380 9382
3741.7080 9383 9381 9374 9361 9347 9341 9352 9369 9380 9384 9385 9385 9384
3747.9756 9384 9385 9386 9388 9388 9387 9386 9384 9384 9388 9394 9401 9407
3754.2429 9413 9418 9422 9423 9421 9416 9409 9403 9397 9395 9395 9397 9400
3760.5105 9403 9407 9411 9415 9419 9421 9420 9415 9410 9406 9406 9410 9415
3766.7781 9419 9420 9418 9413 9404 9393 9383 9377 9377 9381 9387 9395 9403
3773.0457 9410 9416 9420 9424 9427 9430 9432 9433 9432 9428 9421 9413 9404
3779.3130 9399 9398 9399 9400 9400 9398 9395 9392 9392 9395 9401 9410 9419
3785.5806 9423 9422 9417 9411 9406 9404 9406 9410 9415 9419 9421 9420 9418
3791.8481 9414 9409 9403 9397 9392 9389 9387 9386 9387 9389 9391 9392 9394
3798.1157 9398 9402 9408 9412 9410 9399 9379 9361 9356 9364 9378 9393 9404
3804.3831 9411 9413 9410 9404 9398 9396 9397 9398 9398 9398 9398 9399 9401
3810.6506 9403 9403 9400 9397 9394 9394 9396 9398 9399 9398 9398 9399 9402
3816.9182 9405 9407 9407 9405 9402 9399 9395 9392 9392 9395 9398 9400 9399
3823.1858 9398 9395 9393 9392 9393 9396 9402 9410 9418 9423 9425 9423 9417
3829.4531 9407 9395 9383 9377 9378 9386 9396 9402 9403 9400 9393 9387 9385
3835.7207 9387 9390 9394 9394 9389 9381 9373 9369 9370 9375 9384 9391 9394
3841.9883 9393 9389 9386 9387 9393 9401 9407 9410 9409 9406 9403 9401 9401
3848.2559 9401 9400 9396 9390 9384 9382 9385 9394 9407 9419 9420 9409 9397
3854.5232 9389 9386 9386 9388 9389 9391 9394 9397 9399 9401 9401 9401 9399
3860.7908 9398 9397 9398 9400 9399 9394 9384 9371 9360 9360 9369 9382 9395
3867.0583 9404 9408 9406 9398 9385 9372 9366 9367 9373 9380 9386 9390 9393
3873.3259 9393 9393 9394 9396 9398 9401 9403 9405 9407 9407 9404 9396 9386
3879.5933 9375 9370 9373 9380 9389 9395 9399 9402 9403 9402 9399 9395 9392
3885.8608 9395 9402 9410 9417 9420 9419 9414 9406 9397 9388 9381 9378 9378
3892.1284 9379 9381 9383 9385 9387 9389 9390 9392 9393 9393 9393 9391 9390
3898.3960 9389 9389 9391 9392 9392 9391 9389 9386 9382 9378 9373 9370 9369
3904.6633 9373 9379 9387 9395 9401 9405 9409 9411 9411 9411 9409 9406 9404
3910.9309 9403 9403 9403 9402 9401 9398 9395 9392 9390 9391 9394 9398 9402
3917.1985 9402 9400 9397 9394 9393 9395 9398 9401 9403 9402 9398 9394 9390
3923.4661 9390 9395 9403 9412 9418 9419 9417 9411 9405 9398 9392 9386 9383
3929.7334 9382 9382 9383 9384 9385 9386 9387 9390 9394 9399 9405 9410 9413
3936.0010 9414 9413 9410 9407 9404 9404 9404 9406 9407 9406 9404 9401 9399
3942.2686 9398 9401 9404 9407 9409 9410 9409 9408 9405 9402 9400 9400 9402
3948.5361 9407 9414 9420 9424 9425 9424 9420 9415 9410 9405 9401 9398 9397
3954.8035 9396 9397 9398 9401 9404 9408 9412 9416 9420 9421 9420 9416 9412
3961.0710 9408 9406 9406 9407 9407 9406 9404 9402 9402 9402 9404 9405 9405
3967.3386 9405 9405 9406 9408 9409 9408 9405 9402 9400 9399 9401 9404 9407
3973.6062 9410 9413 9416 9419 9421 9421 9420 9417 9415 9413 9411 9410 9408
3979.8735 9405 9403 9403 9405 9409 9413 9417 9420 9423 9425 9426 9425 9422
3986.1411 9416 9411 9406 9405 9406 9408 9412 9414 9416 9418 9419 9420 9420
3992.4087 9419 9418 9416 9412 9408 9404 9401 9400 9401 9403 9406 9407 9406
3998.6763 9404 9402 9400 9400
##END= 
