##TITLE= STDFUROSEMIDE
##JCAMP-DX= 4.24
##DATA TYPE= INFRARED SPECTRUM
##ORIGIN= JASCO
##OWNER= 
##DATE= 22/04/12
##TIME= 15:09:51
##SPECTROMETER/DATA SYSTEM= 
##RESOLUTION= 
##DELTAX=   0.48211674
##XUNITS= 1/CM
##YUNITS= TRANSMITTANCE
##XFACTOR= 1.00000
##YFACTOR= 0.0001
##FIRSTX=   599.7532
##LASTX=  4000.1226
##NPOINTS=     7054
##FIRSTY=      0.78130
##MAXY=      1.01105
##MINY=      0.40643
##XYDATA= (X++(Y..Y))
599.7532 7813 7892 8008 8151 8303 8449 8576 8682 8769 8839 8890 8916 8917 8899
606.5029 8874 8859 8857 8864 8870 8863 8841 8802 8747 8675 8582 8471 8357 8260
613.2525 8196 8174 8187 8219 8254 8279 8294 8302 8309 8318 8326 8328 8323 8314
620.0021 8309 8319 8353 8407 8469 8524 8557 8568 8568 8570 8582 8599 8606 8590
626.7518 8551 8507 8481 8492 8541 8609 8666 8682 8651 8586 8519 8487 8516 8618
633.5014 8782 8978 9166 9310 9398 9436 9444 9447 9458 9481 9511 9535 9542 9528
640.2510 9495 9448 9392 9330 9264 9197 9134 9083 9050 9038 9047 9072 9104 9134
647.0007 9152 9157 9153 9150 9158 9181 9214 9248 9275 9292 9301 9304 9306 9309
653.7503 9312 9314 9314 9310 9301 9288 9273 9260 9250 9244 9237 9225 9211 9199
660.4999 9203 9229 9280 9342 9398 9428 9425 9399 9373 9363 9375 9404 9433 9442
667.2496 9399 9284 9169 9185 9300 9416 9499 9544 9554 9535 9498 9460 9437 9439
673.9992 9468 9515 9567 9610 9633 9632 9612 9583 9555 9529 9497 9444 9350 9199
680.7488 8988 8726 8443 8173 7954 7813 7763 7800 7908 8063 8245 8441 8644 8853
687.4985 9061 9259 9423 9528 9552 9492 9372 9235 9128 9084 9107 9170 9228 9246
694.2481 9220 9180 9169 9211 9297 9383 9420 9384 9297 9210 9175 9212 9305 9406
700.9977 9466 9455 9378 9264 9143 9029 8918 8799 8664 8521 8387 8281 8212 8177
707.7474 8163 8159 8159 8165 8184 8226 8291 8376 8473 8576 8683 8796 8917 9042
714.4970 9158 9250 9309 9337 9352 9372 9410 9468 9533 9594 9638 9661 9664 9651
721.2466 9627 9595 9559 9523 9492 9469 9452 9435 9411 9377 9332 9276 9215 9151
727.9963 9086 9021 8957 8893 8828 8762 8689 8605 8505 8387 8256 8120 7990 7878
734.7459 7791 7730 7693 7673 7662 7650 7629 7593 7539 7471 7392 7306 7213 7110
741.4955 6995 6873 6752 6650 6580 6551 6560 6594 6637 6670 6683 6671 6643 6609
748.2452 6586 6588 6623 6695 6801 6938 7096 7270 7450 7622 7775 7898 7991 8059
754.9948 8116 8169 8223 8272 8309 8332 8346 8363 8392 8433 8476 8509 8520 8508
761.7444 8480 8448 8419 8398 8382 8371 8362 8359 8363 8378 8404 8442 8492 8550
768.4941 8616 8685 8753 8819 8880 8937 8991 9043 9094 9141 9185 9221 9251 9273
775.2437 9291 9304 9317 9328 9338 9345 9346 9340 9327 9305 9278 9245 9205 9157
781.9933 9097 9022 8935 8839 8741 8646 8561 8488 8428 8378 8338 8309 8292 8293
788.7430 8317 8369 8445 8539 8639 8738 8828 8908 8980 9044 9101 9149 9184 9208
795.4926 9222 9234 9246 9260 9276 9290 9298 9300 9297 9293 9290 9288 9286 9281
802.2422 9272 9262 9252 9243 9234 9225 9218 9215 9220 9233 9255 9282 9313 9344
808.9919 9370 9387 9392 9384 9367 9350 9343 9350 9369 9392 9412 9423 9426 9428
815.7415 9435 9449 9465 9479 9484 9479 9465 9448 9433 9418 9399 9369 9327 9280
822.4911 9244 9232 9250 9290 9341 9389 9431 9472 9520 9577 9636 9685 9715 9725
829.2408 9723 9718 9717 9718 9715 9702 9676 9642 9603 9567 9536 9516 9508 9512
835.9904 9528 9548 9567 9579 9581 9574 9560 9542 9519 9490 9452 9405 9349 9286
842.7401 9215 9135 9039 8924 8790 8643 8500 8378 8297 8264 8281 8339 8425 8530
849.4897 8646 8768 8891 9009 9116 9208 9280 9333 9366 9384 9391 9393 9397 9406
856.2393 9420 9434 9441 9438 9423 9399 9374 9351 9335 9324 9317 9310 9304 9299
862.9890 9298 9302 9309 9316 9321 9324 9325 9325 9325 9322 9318 9312 9305 9299
869.7386 9295 9292 9289 9283 9272 9257 9239 9222 9211 9205 9204 9204 9201 9192
876.4882 9177 9159 9140 9121 9100 9075 9042 8992 8918 8820 8705 8595 8517 8497
883.2379 8544 8645 8771 8892 8983 9040 9069 9083 9091 9094 9089 9075 9053 9026
889.9875 9001 8977 8956 8935 8913 8888 8862 8834 8804 8771 8734 8693 8649 8603
896.7371 8558 8515 8475 8439 8408 8380 8357 8337 8322 8312 8308 8308 8310 8311
903.4868 8307 8298 8282 8260 8233 8205 8178 8154 8134 8118 8103 8091 8081 8077
910.2364 8082 8098 8125 8158 8193 8225 8249 8264 8269 8262 8246 8224 8198 8173
916.9860 8150 8127 8103 8074 8037 7994 7944 7892 7842 7798 7767 7756 7770 7811
923.7357 7878 7965 8064 8170 8275 8374 8464 8541 8605 8655 8696 8729 8759 8785
930.4853 8805 8819 8824 8824 8820 8815 8811 8809 8805 8798 8785 8767 8743 8717
937.2349 8689 8660 8630 8598 8564 8527 8486 8443 8398 8354 8314 8279 8249 8226
943.9846 8208 8197 8194 8201 8218 8245 8279 8319 8363 8413 8472 8541 8620 8704
950.7342 8788 8866 8937 8998 9051 9099 9142 9180 9214 9245 9273 9302 9332 9363
957.4838 9391 9413 9428 9439 9449 9462 9481 9504 9527 9546 9559 9565 9567 9566
964.2335 9564 9563 9562 9561 9559 9556 9553 9549 9545 9543 9540 9535 9528 9518
970.9831 9505 9490 9472 9448 9419 9387 9356 9330 9311 9300 9293 9289 9286 9285
977.7327 9287 9293 9300 9305 9306 9300 9289 9273 9256 9239 9226 9219 9220 9232
984.4824 9254 9286 9327 9372 9420 9468 9514 9556 9594 9626 9654 9677 9698 9718
991.2320 9738 9759 9777 9793 9804 9812 9817 9822 9829 9840 9853 9865 9876 9883
997.9816 9887 9889 9889 9887 9882 9876 9868 9861 9857 9858 9863 9870 9876 9878
1004.7313 9876 9869 9860 9849 9832 9810 9780 9744 9703 9660 9614 9564 9501
1010.9988 9420 9315 9183 9031 8874 8733 8630 8584 8597 8657 8740 8819 8875
1017.2663 8908 8929 8960 9017 9108 9227 9361 9493 9612 9712 9793 9856 9904
1023.5338 9938 9960 9976 9990 10011 10039 10071 10098 10111 10102 10076 10039
1029.3192 10004 9978 9962 9954 9949 9944 9941 9942 9947 9957 9969 9980 9989
1035.5868 9997 10004 10009 10013 10012 10006 9996 9984 9970 9954 9935 9911
1041.3722 9882 9851 9821 9794 9769 9747 9723 9696 9664 9625 9583 9537 9488
1047.6396 9437 9382 9321 9255 9183 9112 9046 8991 8952 8932 8930 8945 8973
1053.9072 9013 9061 9119 9185 9261 9344 9430 9510 9580 9636 9680 9717 9751
1060.1747 9783 9813 9839 9858 9874 9891 9913 9941 9974 10009 10036 10049 10039
1066.4423 10002 9940 9859 9768 9672 9571 9458 9324 9170 9008 8867 8779 8768
1072.7097 8837 8967 9124 9271 9380 9437 9444 9415 9374 9343 9337 9364 9423
1078.9773 9503 9593 9679 9754 9814 9857 9887 9907 9919 9928 9934 9939 9943
1085.2448 9946 9946 9944 9938 9929 9917 9902 9884 9860 9831 9798 9766 9739
1091.5123 9718 9703 9689 9672 9648 9619 9587 9553 9518 9482 9445 9408 9374
1097.7798 9347 9326 9311 9297 9279 9255 9223 9188 9152 9121 9100 9089 9088
1104.0474 9095 9105 9112 9114 9109 9101 9093 9088 9086 9087 9092 9098 9106
1110.3148 9112 9115 9113 9103 9085 9060 9030 8995 8956 8914 8868 8819 8770
1116.5824 8722 8675 8628 8579 8526 8469 8407 8345 8283 8223 8164 8103 8039
1122.8499 7972 7902 7832 7761 7689 7616 7538 7455 7365 7269 7166 7055 6936
1129.1174 6808 6671 6527 6377 6224 6070 5915 5760 5604 5447 5290 5134 4980
1135.3849 4830 4684 4545 4417 4303 4209 4136 4088 4064 4066 4094 4148 4227
1141.6525 4329 4456 4605 4780 4978 5198 5436 5684 5937 6189 6438 6679 6907
1147.9199 7116 7302 7464 7602 7723 7834 7942 8056 8182 8321 8470 8619 8760
1154.1875 8885 8989 9071 9133 9178 9210 9232 9248 9261 9275 9293 9313 9334
1160.4550 9356 9375 9391 9404 9414 9422 9429 9434 9439 9444 9449 9455 9462
1166.7225 9469 9474 9478 9481 9483 9487 9491 9496 9500 9504 9507 9510 9513
1172.9900 9516 9520 9524 9527 9530 9530 9530 9528 9526 9525 9525 9526 9529
1179.2576 9533 9538 9544 9550 9554 9556 9555 9551 9546 9541 9535 9528 9519
1185.5250 9509 9496 9483 9470 9458 9444 9429 9413 9396 9380 9364 9350 9336
1191.7926 9323 9308 9291 9271 9249 9224 9199 9172 9147 9121 9096 9069 9041
1198.0601 9009 8973 8936 8898 8862 8830 8802 8778 8755 8731 8705 8676 8646
1204.3276 8620 8604 8602 8615 8641 8674 8707 8736 8757 8767 8768 8759 8741
1210.5951 8713 8678 8636 8589 8540 8490 8442 8401 8371 8354 8350 8355 8366
1216.8627 8376 8385 8391 8398 8406 8416 8427 8436 8441 8442 8438 8431 8421
1223.1301 8408 8391 8370 8344 8317 8288 8260 8233 8206 8177 8146 8112 8076
1229.3977 8040 8004 7969 7935 7902 7869 7835 7800 7762 7721 7680 7638 7597
1235.6652 7560 7524 7492 7461 7432 7407 7386 7372 7365 7364 7366 7369 7370
1241.9327 7371 7373 7382 7399 7426 7464 7512 7569 7636 7714 7803 7901 8006
1248.2002 8111 8211 8302 8379 8443 8493 8530 8555 8568 8565 8547 8512 8460
1254.4678 8393 8314 8225 8130 8032 7933 7835 7741 7653 7572 7502 7444 7402
1260.7352 7376 7367 7371 7387 7412 7444 7482 7525 7570 7611 7644 7666 7680
1267.0028 7694 7717 7757 7812 7872 7923 7951 7952 7931 7898 7865 7841 7829
1273.2703 7829 7838 7857 7886 7927 7978 8040 8107 8178 8251 8325 8401 8476
1279.5378 8549 8618 8680 8738 8791 8843 8896 8950 9002 9051 9092 9125 9150
1285.8053 9168 9180 9188 9192 9191 9186 9178 9168 9158 9150 9144 9141 9138
1292.0729 9136 9133 9130 9127 9127 9128 9130 9133 9135 9136 9137 9137 9136
1298.3403 9132 9124 9114 9102 9088 9075 9063 9050 9039 9028 9018 9008 8997
1304.6079 8981 8959 8929 8890 8844 8793 8736 8675 8611 8547 8484 8422 8361
1310.8754 8300 8239 8179 8120 8064 8014 7969 7929 7894 7863 7834 7810 7789
1317.1429 7774 7766 7764 7769 7781 7797 7817 7840 7865 7893 7925 7963 8006
1323.4104 8055 8108 8164 8223 8283 8345 8407 8469 8532 8595 8658 8721 8783
1329.6780 8845 8905 8964 9020 9074 9125 9173 9218 9260 9298 9334 9367 9397
1335.9454 9426 9452 9476 9497 9516 9534 9554 9576 9601 9627 9650 9669 9683
1342.2130 9692 9698 9701 9701 9700 9696 9689 9681 9671 9658 9643 9624 9600
1348.4805 9572 9542 9511 9483 9457 9436 9420 9407 9400 9399 9402 9409 9419
1354.7480 9430 9442 9452 9461 9472 9485 9504 9528 9558 9593 9630 9668 9704
1361.0155 9736 9763 9785 9803 9817 9829 9838 9846 9854 9860 9865 9869 9873
1367.2831 9875 9877 9878 9878 9878 9877 9878 9879 9883 9888 9894 9900 9904
1373.5505 9904 9901 9895 9889 9884 9880 9876 9872 9865 9857 9849 9840 9834
1379.8181 9830 9828 9826 9824 9822 9818 9813 9807 9801 9797 9794 9793 9793
1386.0856 9791 9787 9780 9772 9766 9762 9761 9762 9764 9768 9773 9782 9796
1392.3531 9812 9828 9839 9837 9818 9780 9735 9696 9667 9646 9628 9610 9587
1398.6206 9559 9528 9500 9475 9453 9431 9407 9380 9351 9320 9286 9249 9208
1404.8882 9165 9126 9093 9067 9047 9031 9020 9015 9019 9032 9052 9081 9115
1411.1556 9153 9195 9237 9280 9321 9360 9397 9431 9465 9497 9528 9556 9581
1417.4232 9601 9618 9632 9648 9667 9688 9708 9724 9736 9745 9748 9745 9734
1423.6907 9716 9695 9676 9661 9651 9644 9639 9635 9631 9627 9621 9613 9603
1429.9583 9593 9586 9582 9579 9576 9570 9562 9553 9545 9541 9539 9537 9531
1436.2257 9518 9503 9493 9491 9495 9501 9507 9513 9518 9522 9525 9527 9525
1442.4933 9521 9513 9502 9491 9480 9472 9465 9458 9451 9442 9432 9422 9417
1448.7607 9416 9417 9419 9421 9420 9419 9419 9421 9426 9432 9439 9445 9452
1455.0283 9461 9474 9493 9519 9544 9558 9561 9558 9556 9555 9555 9557 9559
1461.2958 9562 9566 9571 9577 9586 9598 9615 9638 9662 9684 9702 9717 9730
1467.5634 9742 9753 9761 9766 9769 9768 9766 9760 9746 9719 9679 9638 9611
1473.8308 9598 9592 9588 9581 9568 9546 9520 9495 9474 9456 9440 9425 9409
1480.0984 9392 9372 9350 9327 9306 9288 9273 9261 9251 9243 9237 9231 9225
1486.3658 9217 9206 9192 9178 9164 9148 9126 9095 9060 9031 9014 9008 9011
1492.6334 9019 9032 9047 9065 9087 9116 9155 9203 9251 9293 9328 9360 9393
1498.9009 9424 9451 9473 9492 9508 9523 9537 9547 9552 9552 9550 9547 9542
1505.1685 9536 9523 9492 9439 9390 9366 9367 9390 9427 9471 9516 9556 9591
1511.4359 9618 9637 9649 9656 9660 9664 9668 9672 9676 9678 9674 9662 9647
1517.7035 9635 9629 9629 9631 9633 9633 9624 9603 9577 9561 9556 9557 9560
1523.9709 9561 9560 9553 9542 9528 9515 9503 9492 9480 9468 9457 9447 9438
1530.2385 9429 9421 9412 9402 9390 9375 9354 9330 9306 9286 9267 9250 9232
1536.5060 9214 9198 9182 9166 9145 9110 9064 9025 9007 8999 8990 8974 8954
1542.7736 8932 8909 8885 8855 8818 8777 8738 8704 8676 8651 8626 8599 8568
1549.0410 8531 8486 8436 8384 8338 8297 8262 8228 8190 8141 8075 7997 7925
1555.3086 7868 7822 7781 7737 7688 7629 7563 7511 7482 7454 7421 7390 7366
1561.5760 7348 7335 7326 7323 7328 7343 7369 7405 7446 7490 7534 7578 7625
1567.8436 7679 7754 7865 8017 8176 8300 8385 8451 8511 8572 8633 8688 8731
1574.1111 8762 8784 8801 8818 8838 8856 8871 8881 8889 8895 8897 8892 8877
1580.3787 8854 8824 8789 8751 8712 8673 8634 8595 8554 8511 8465 8417 8370
1586.6461 8324 8282 8244 8213 8189 8171 8162 8163 8175 8199 8236 8284 8341
1592.9137 8408 8483 8563 8643 8718 8781 8832 8873 8907 8940 8973 9009 9047
1599.1813 9087 9129 9173 9216 9258 9297 9334 9369 9400 9427 9451 9471 9489
1605.4487 9508 9528 9550 9571 9591 9608 9624 9638 9653 9668 9682 9695 9708
1611.7163 9721 9737 9755 9775 9794 9812 9829 9846 9862 9876 9882 9880 9875
1617.9838 9872 9871 9870 9869 9865 9859 9853 9845 9837 9825 9805 9777 9747
1624.2513 9725 9711 9703 9696 9688 9676 9658 9635 9613 9594 9581 9570 9559
1630.5188 9546 9532 9516 9502 9490 9481 9473 9464 9452 9432 9407 9387 9375
1636.7864 9370 9366 9361 9356 9351 9346 9340 9334 9326 9316 9304 9291 9279
1643.0538 9268 9259 9250 9240 9226 9203 9171 9133 9097 9065 9035 9005 8976
1649.3214 8949 8926 8906 8888 8874 8861 8842 8792 8690 8599 8551 8524 8502
1655.5889 8478 8452 8422 8389 8354 8318 8283 8248 8214 8182 8153 8127 8103
1661.8564 8077 8048 8018 7992 7972 7958 7947 7937 7928 7919 7911 7905 7899
1668.1239 7896 7895 7896 7900 7907 7916 7928 7944 7961 7978 7993 8008 8027
1674.3915 8058 8107 8169 8229 8278 8319 8357 8397 8442 8492 8550 8614 8679
1680.6589 8738 8787 8826 8858 8888 8930 9003 9120 9222 9268 9286 9300 9319
1686.9265 9342 9369 9398 9427 9452 9475 9495 9514 9532 9550 9566 9580 9593
1693.1940 9603 9613 9623 9635 9650 9666 9680 9689 9693 9698 9703 9710 9720
1699.4615 9736 9756 9771 9773 9770 9768 9769 9771 9777 9784 9791 9796 9798
1705.7290 9797 9796 9799 9805 9813 9821 9829 9834 9839 9842 9845 9848 9852
1711.9966 9858 9864 9869 9872 9872 9869 9866 9865 9867 9871 9877 9881 9881
1718.2640 9877 9874 9871 9870 9868 9867 9866 9865 9866 9867 9870 9872 9875
1724.5316 9877 9879 9881 9882 9882 9882 9883 9883 9884 9884 9884 9882 9880
1730.7991 9878 9877 9876 9874 9870 9866 9864 9869 9877 9884 9889 9890 9890
1737.0667 9890 9890 9890 9890 9889 9887 9883 9879 9879 9880 9884 9888 9890
1743.3341 9889 9885 9879 9874 9870 9868 9867 9867 9868 9868 9869 9871 9874
1749.6017 9876 9877 9874 9867 9858 9851 9849 9849 9853 9859 9865 9870 9873
1755.8691 9874 9872 9869 9866 9864 9863 9863 9864 9867 9870 9873 9876 9876
1762.1367 9873 9869 9866 9866 9867 9869 9871 9871 9870 9869 9867 9866 9868
1768.4042 9870 9873 9875 9878 9881 9886 9893 9901 9905 9904 9898 9892 9885
1774.6718 9881 9877 9876 9876 9877 9877 9877 9877 9877 9877 9877 9878 9878
1780.9392 9878 9878 9877 9878 9878 9878 9879 9879 9881 9882 9884 9886 9888
1787.2068 9890 9892 9893 9894 9894 9892 9889 9884 9879 9875 9872 9869 9867
1793.4742 9865 9864 9864 9865 9867 9870 9873 9875 9878 9879 9879 9877 9873
1799.7418 9870 9868 9869 9872 9875 9878 9880 9881 9881 9880 9877 9874 9871
1806.0093 9868 9868 9870 9872 9872 9871 9867 9861 9855 9849 9846 9845 9847
1812.2769 9850 9854 9857 9858 9858 9856 9853 9850 9848 9848 9850 9853 9856
1818.5443 9857 9857 9856 9855 9854 9854 9856 9859 9862 9864 9866 9869 9872
1824.8119 9876 9880 9880 9877 9873 9868 9864 9861 9860 9858 9855 9851 9848
1831.0793 9846 9847 9849 9853 9858 9862 9865 9867 9866 9866 9867 9871 9877
1837.3469 9885 9891 9892 9887 9878 9868 9861 9857 9857 9858 9860 9861 9859
1843.6144 9854 9849 9846 9848 9854 9862 9871 9881 9889 9894 9894 9891 9887
1849.8820 9882 9880 9880 9884 9890 9894 9895 9891 9883 9873 9865 9863 9866
1856.1494 9873 9881 9888 9890 9888 9884 9878 9874 9872 9871 9872 9873 9874
1862.4170 9876 9878 9881 9884 9888 9890 9891 9889 9888 9888 9891 9895 9896
1868.6844 9893 9885 9875 9869 9867 9869 9872 9873 9872 9871 9870 9873 9879
1874.9520 9887 9897 9905 9908 9907 9901 9893 9884 9878 9876 9876 9876 9875
1881.2195 9872 9868 9865 9866 9871 9881 9892 9901 9908 9909 9907 9903 9898
1887.4871 9893 9888 9885 9882 9880 9880 9881 9884 9887 9890 9891 9892 9893
1893.7545 9895 9897 9897 9891 9879 9863 9850 9844 9846 9856 9868 9877 9880
1900.0221 9877 9870 9863 9858 9856 9854 9851 9848 9846 9847 9853 9861 9869
1906.2896 9873 9875 9873 9873 9874 9876 9878 9877 9874 9873 9878 9889 9903
1912.5571 9914 9918 9914 9906 9899 9899 9905 9913 9918 9915 9903 9889 9878
1918.8246 9877 9882 9889 9894 9894 9889 9880 9870 9861 9858 9860 9867 9875
1925.0922 9881 9883 9881 9877 9873 9873 9875 9876 9873 9865 9851 9835 9822
1931.3596 9817 9822 9839 9866 9897 9927 9947 9953 9940 9913 9879 9850 9832
1937.6272 9829 9835 9845 9853 9857 9861 9871 9889 9914 9940 9957 9960 9950
1943.8947 9933 9917 9906 9903 9905 9908 9906 9899 9889 9880 9879 9889 9907
1950.1622 9928 9945 9954 9954 9948 9941 9936 9935 9939 9945 9953 9961 9965
1956.4297 9964 9954 9935 9907 9875 9847 9830 9828 9838 9853 9867 9874 9874
1962.6973 9873 9874 9878 9883 9887 9887 9886 9886 9891 9898 9905 9904 9893
1968.9647 9874 9853 9838 9836 9850 9878 9914 9949 9979 9999 10006 9998 9974
1975.2323 9942 9913 9901 9914 9943 9972 9982 9971 9953 9947 9963 9994 10022
1981.4998 10031 10013 9979 9941 9912 9893 9877 9858 9837 9819 9809 9808 9812
1987.7673 9818 9827 9843 9869 9905 9940 9965 9973 9968 9964 9970 9984 9990
1994.0348 9974 9929 9864 9803 9770 9778 9816 9859 9879 9859 9808 9752 9726
2000.3024 9751 9825 9922 10005 10041 10021 9958 9880 9815 9777 9770 9787 9822
2006.5698 9863 9900 9920 9915 9887 9850 9827 9832 9869 9925 9980 10019 10036
2012.8374 10035 10022 9997 9957 9898 9824 9750 9698 9688 9723 9791 9867 9928
2019.1049 9960 9970 9973 9987 10019 10060 10088 10083 10036 9960 9878 9812
2024.8903 9772 9754 9747 9743 9740 9738 9738 9738 9736 9735 9743 9771 9820
2031.1578 9880 9930 9955 9947 9919 9887 9865 9857 9856 9857 9862 9878 9910
2037.4253 9954 9992 10005 9983 9934 9880 9846 9849 9885 9938 9986 10010 10003
2043.6929 9966 9909 9842 9780 9735 9717 9725 9752 9784 9810 9825 9833 9845
2049.9604 9867 9899 9931 9951 9950 9927 9887 9841 9802 9778 9772 9782 9803
2056.2278 9828 9850 9864 9866 9856 9841 9827 9818 9816 9820 9822 9821 9815
2062.4954 9809 9810 9822 9847 9878 9906 9922 9920 9903 9878 9853 9833 9820
2068.7629 9813 9808 9804 9802 9802 9803 9807 9812 9817 9821 9824 9827 9827
2075.0305 9826 9824 9821 9818 9815 9813 9814 9819 9827 9834 9836 9831 9819
2081.2979 9803 9791 9786 9789 9799 9811 9821 9825 9825 9823 9823 9827 9835
2087.5654 9845 9854 9859 9858 9852 9841 9828 9816 9805 9796 9789 9785 9785
2093.8330 9789 9800 9819 9844 9871 9890 9896 9887 9868 9846 9830 9824 9828
2100.1006 9837 9849 9859 9865 9865 9860 9851 9842 9839 9841 9847 9850 9845
2106.3679 9832 9813 9795 9782 9775 9775 9781 9793 9811 9832 9853 9869 9877
2112.6355 9876 9871 9863 9855 9847 9837 9824 9811 9800 9793 9791 9795 9802
2118.9031 9811 9818 9822 9822 9820 9818 9819 9824 9833 9841 9845 9843 9835
2125.1707 9825 9815 9806 9798 9790 9781 9774 9771 9774 9782 9788 9788 9781
2131.4380 9770 9765 9778 9811 9857 9903 9931 9929 9898 9849 9799 9766 9758
2137.7056 9774 9803 9827 9833 9813 9774 9734 9711 9714 9742 9784 9825 9857
2143.9731 9878 9892 9897 9892 9872 9839 9803 9777 9773 9794 9828 9863 9888
2150.2407 9901 9904 9901 9890 9866 9830 9787 9753 9739 9748 9768 9784 9784
2156.5081 9772 9763 9774 9808 9850 9875 9870 9845 9825 9830 9862 9907 9944
2162.7756 9962 9962 9952 9944 9940 9933 9915 9882 9839 9797 9767 9759 9774
2169.0432 9806 9849 9891 9924 9943 9943 9924 9890 9851 9821 9812 9828 9858
2175.3108 9887 9898 9887 9861 9834 9822 9829 9853 9885 9913 9932 9935 9921
2181.5781 9889 9845 9797 9757 9736 9736 9756 9788 9825 9862 9894 9917 9928
2187.8457 9922 9903 9877 9853 9838 9834 9836 9837 9832 9820 9805 9794 9792
2194.1133 9799 9811 9822 9824 9815 9800 9786 9785 9801 9834 9874 9909 9927
2200.3809 9923 9899 9863 9824 9791 9771 9769 9787 9819 9859 9893 9911 9906
2206.6482 9878 9837 9794 9763 9750 9754 9767 9781 9793 9801 9810 9823 9842
2212.9158 9865 9886 9904 9916 9923 9923 9913 9892 9862 9830 9803 9787 9782
2219.1833 9785 9791 9799 9810 9825 9842 9856 9861 9858 9849 9843 9843 9851
2225.4509 9860 9864 9858 9841 9818 9797 9783 9779 9783 9792 9801 9807 9810
2231.7183 9814 9819 9827 9838 9849 9859 9870 9880 9889 9892 9886 9870 9848
2237.9858 9826 9811 9806 9810 9817 9822 9824 9825 9828 9835 9844 9852 9856
2244.2534 9853 9847 9838 9829 9820 9809 9798 9788 9783 9785 9796 9811 9825
2250.5210 9833 9831 9824 9815 9811 9813 9819 9822 9820 9813 9805 9800 9801
2256.7883 9807 9816 9823 9827 9830 9833 9840 9848 9857 9863 9864 9860 9851
2263.0559 9841 9829 9819 9809 9800 9795 9793 9796 9805 9816 9827 9836 9841
2269.3235 9842 9841 9838 9835 9832 9830 9830 9830 9832 9833 9834 9834 9833
2275.5911 9831 9824 9815 9804 9793 9786 9784 9784 9786 9787 9787 9784 9781
2281.8584 9779 9779 9779 9781 9784 9788 9793 9800 9805 9808 9807 9801 9792
2288.1260 9782 9775 9773 9777 9787 9796 9802 9799 9787 9768 9750 9737 9735
2294.3936 9742 9755 9768 9775 9776 9773 9769 9768 9770 9774 9778 9781 9783
2300.6611 9784 9785 9785 9784 9783 9781 9776 9770 9761 9751 9740 9732 9727
2306.9285 9728 9732 9739 9745 9751 9756 9761 9768 9776 9783 9786 9782 9771
2313.1960 9754 9737 9724 9716 9713 9715 9719 9725 9731 9737 9742 9746 9748
2319.4636 9748 9747 9746 9747 9749 9751 9753 9753 9749 9743 9736 9731 9729
2325.7312 9728 9727 9725 9722 9719 9719 9722 9728 9734 9737 9735 9729 9721
2331.9985 9712 9703 9695 9690 9687 9688 9692 9699 9709 9720 9731 9740 9747
2338.2661 9751 9752 9748 9738 9723 9707 9693 9686 9686 9691 9696 9698 9696
2344.5337 9692 9688 9687 9687 9688 9687 9685 9683 9681 9680 9680 9680 9682
2350.8013 9685 9689 9694 9700 9705 9710 9715 9723 9733 9743 9748 9741 9718
2357.0686 9681 9637 9600 9580 9583 9606 9639 9670 9689 9694 9688 9679 9672
2363.3362 9673 9679 9685 9687 9681 9670 9661 9659 9666 9677 9686 9688 9683
2369.6038 9675 9670 9672 9678 9684 9684 9677 9667 9656 9650 9649 9654 9661
2375.8713 9669 9676 9680 9680 9678 9673 9669 9665 9664 9663 9662 9661 9660
2382.1387 9660 9662 9665 9667 9667 9666 9664 9663 9663 9665 9667 9669 9669
2388.4063 9667 9666 9666 9668 9671 9675 9678 9678 9675 9671 9666 9661 9658
2394.6738 9656 9655 9656 9656 9657 9657 9656 9655 9655 9655 9655 9657 9660
2400.9414 9662 9664 9664 9664 9662 9659 9656 9653 9650 9648 9647 9646 9645
2407.2087 9645 9646 9648 9650 9653 9654 9654 9651 9646 9640 9636 9635 9635
2413.4763 9637 9638 9639 9638 9637 9638 9641 9645 9648 9648 9643 9637 9631
2419.7439 9626 9623 9622 9621 9619 9617 9616 9615 9616 9618 9622 9626 9630
2426.0115 9632 9632 9630 9625 9621 9620 9622 9625 9629 9631 9631 9631 9630
2432.2788 9628 9626 9622 9616 9611 9607 9606 9606 9606 9607 9607 9606 9606
2438.5464 9606 9607 9609 9613 9616 9618 9617 9611 9603 9595 9589 9587 9591
2444.8140 9597 9604 9610 9615 9617 9618 9616 9612 9605 9598 9593 9593 9597
2451.0815 9604 9610 9613 9612 9607 9600 9595 9592 9591 9592 9593 9595 9596
2457.3489 9595 9592 9587 9581 9577 9574 9576 9580 9585 9589 9589 9586 9579
2463.6165 9572 9567 9566 9570 9577 9585 9591 9593 9590 9583 9575 9569 9566
2469.8840 9567 9571 9576 9580 9582 9582 9582 9581 9581 9581 9584 9588 9594
2476.1516 9600 9604 9605 9602 9597 9593 9592 9592 9594 9595 9594 9592 9590
2482.4189 9588 9589 9592 9596 9601 9605 9607 9606 9602 9595 9588 9582 9579
2488.6865 9578 9579 9582 9584 9586 9588 9588 9587 9585 9582 9580 9578 9579
2494.9541 9581 9584 9586 9585 9580 9572 9562 9552 9545 9543 9545 9552 9560
2501.2217 9569 9576 9581 9583 9582 9579 9573 9568 9563 9562 9563 9568 9572
2507.4890 9576 9577 9576 9573 9571 9571 9572 9573 9573 9572 9569 9567 9566
2513.7566 9567 9570 9572 9574 9576 9577 9578 9579 9577 9574 9568 9563 9560
2520.0242 9560 9561 9563 9563 9563 9561 9562 9564 9567 9571 9575 9579 9584
2526.2917 9588 9592 9593 9588 9578 9564 9550 9541 9538 9541 9547 9553 9557
2532.5591 9558 9559 9561 9566 9571 9576 9576 9572 9564 9556 9548 9543 9539
2538.8267 9537 9536 9536 9537 9540 9544 9546 9547 9547 9546 9546 9546 9547
2545.0942 9545 9542 9537 9531 9529 9529 9534 9542 9550 9558 9563 9564 9561
2551.3618 9554 9545 9536 9528 9523 9521 9521 9523 9527 9530 9535 9541 9546
2557.6292 9551 9552 9552 9548 9543 9537 9533 9530 9528 9528 9528 9530 9533
2563.8967 9538 9543 9548 9550 9549 9546 9542 9539 9539 9540 9543 9546 9549
2570.1643 9553 9557 9561 9564 9565 9563 9559 9554 9550 9549 9552 9559 9567
2576.4319 9573 9573 9566 9554 9543 9536 9536 9542 9551 9559 9563 9561 9557
2582.6995 9552 9549 9551 9556 9563 9570 9573 9574 9572 9568 9564 9560 9558
2588.9668 9555 9552 9548 9545 9543 9544 9550 9558 9567 9573 9576 9575 9571
2595.2344 9566 9562 9560 9560 9560 9559 9558 9556 9553 9550 9549 9549 9550
2601.5020 9551 9553 9554 9554 9556 9558 9560 9563 9565 9565 9564 9562 9559
2607.7695 9556 9554 9552 9550 9549 9549 9551 9554 9557 9559 9560 9558 9556
2614.0369 9554 9553 9553 9553 9552 9550 9550 9552 9557 9562 9567 9568 9566
2620.3044 9562 9558 9557 9557 9559 9561 9562 9560 9556 9552 9547 9544 9541
2626.5720 9540 9540 9541 9542 9544 9546 9548 9549 9551 9553 9555 9557 9556
2632.8396 9556 9555 9555 9557 9561 9564 9566 9566 9564 9561 9560 9561 9564
2639.1069 9569 9575 9580 9583 9585 9584 9582 9579 9575 9573 9573 9574 9576
2645.3745 9579 9582 9584 9585 9584 9583 9580 9577 9574 9573 9573 9575 9578
2651.6421 9581 9582 9582 9581 9579 9578 9576 9574 9572 9570 9569 9568 9569
2657.9097 9571 9573 9575 9576 9576 9575 9575 9575 9575 9576 9576 9576 9576
2664.1770 9575 9575 9575 9575 9575 9575 9575 9575 9576 9576 9577 9577 9579
2670.4446 9581 9586 9591 9597 9602 9606 9607 9607 9606 9604 9603 9602 9603
2676.7122 9603 9605 9606 9607 9607 9605 9603 9599 9596 9594 9594 9594 9595
2682.9797 9596 9596 9596 9596 9598 9600 9602 9602 9600 9596 9590 9585 9582
2689.2471 9581 9581 9583 9583 9583 9582 9583 9584 9586 9588 9589 9589 9586
2695.5146 9583 9580 9578 9575 9573 9571 9570 9570 9571 9573 9575 9576 9576
2701.7822 9576 9574 9572 9571 9570 9571 9572 9573 9574 9575 9576 9578 9579
2708.0498 9579 9578 9575 9572 9570 9569 9569 9570 9570 9570 9570 9571 9572
2714.3171 9573 9574 9575 9576 9579 9582 9584 9585 9582 9578 9572 9567 9564
2720.5847 9563 9563 9563 9564 9564 9565 9567 9570 9575 9578 9581 9581 9578
2726.8523 9575 9571 9567 9565 9564 9564 9564 9564 9564 9565 9566 9568 9569
2733.1199 9569 9569 9569 9569 9569 9569 9569 9569 9568 9567 9566 9566 9566
2739.3872 9566 9566 9566 9565 9563 9562 9560 9560 9561 9564 9566 9567 9567
2745.6548 9565 9562 9560 9559 9559 9561 9563 9564 9564 9563 9562 9560 9558
2751.9224 9555 9552 9550 9548 9547 9548 9550 9552 9555 9557 9559 9560 9561
2758.1899 9561 9560 9558 9556 9554 9553 9554 9555 9558 9561 9562 9563 9562
2764.4573 9559 9555 9552 9548 9547 9547 9550 9555 9560 9563 9565 9565 9563
2770.7249 9560 9558 9557 9557 9559 9562 9566 9570 9573 9573 9571 9568 9565
2776.9924 9563 9562 9562 9562 9562 9561 9560 9559 9558 9559 9560 9562 9564
2783.2600 9566 9568 9570 9572 9574 9574 9574 9572 9569 9567 9565 9563 9561
2789.5273 9560 9558 9558 9558 9559 9561 9563 9564 9566 9568 9570 9573 9575
2795.7949 9577 9576 9573 9567 9561 9556 9553 9552 9552 9553 9554 9554 9556
2802.0625 9557 9559 9561 9562 9562 9561 9559 9556 9555 9556 9559 9563 9568
2808.3301 9571 9571 9567 9562 9557 9555 9555 9557 9559 9561 9561 9561 9560
2814.5974 9558 9556 9553 9551 9550 9550 9550 9552 9553 9555 9556 9557 9558
2820.8650 9559 9560 9561 9561 9560 9559 9558 9557 9557 9557 9558 9558 9559
2827.1326 9559 9558 9558 9559 9562 9567 9573 9579 9583 9584 9582 9578 9574
2833.4001 9572 9572 9574 9576 9577 9576 9574 9573 9574 9578 9582 9587 9590
2839.6675 9591 9592 9593 9594 9597 9599 9600 9601 9602 9602 9601 9600 9599
2845.9351 9599 9600 9603 9606 9611 9614 9617 9619 9621 9624 9628 9634 9640
2852.2026 9647 9653 9657 9661 9662 9662 9662 9660 9659 9659 9660 9663 9668
2858.4702 9674 9681 9689 9696 9701 9705 9707 9707 9707 9706 9707 9709 9712
2864.7375 9714 9716 9718 9719 9722 9725 9731 9737 9743 9748 9752 9755 9756
2871.0051 9757 9758 9758 9759 9759 9759 9758 9757 9757 9759 9762 9765 9768
2877.2727 9771 9774 9777 9780 9783 9787 9791 9796 9802 9811 9819 9827 9833
2883.5403 9837 9838 9836 9834 9832 9830 9829 9829 9828 9827 9825 9823 9821
2889.8076 9821 9824 9828 9835 9842 9849 9854 9857 9857 9855 9853 9852 9852
2896.0752 9854 9856 9860 9866 9876 9890 9907 9922 9932 9935 9930 9920 9907
2902.3428 9896 9887 9883 9882 9882 9883 9884 9884 9883 9882 9883 9885 9888
2908.6104 9891 9892 9892 9890 9886 9883 9880 9877 9875 9873 9871 9870 9868
2914.8777 9866 9864 9862 9860 9859 9859 9860 9861 9862 9863 9863 9861 9859
2921.1453 9857 9856 9854 9853 9853 9852 9852 9852 9852 9853 9852 9851 9849
2927.4128 9844 9838 9832 9825 9822 9821 9824 9828 9831 9833 9831 9828 9824
2933.6804 9821 9821 9821 9821 9820 9817 9814 9811 9809 9809 9810 9813 9817
2939.9478 9820 9822 9823 9824 9823 9823 9823 9824 9824 9825 9824 9824 9824
2946.2153 9825 9828 9831 9833 9835 9837 9838 9840 9843 9844 9843 9841 9838
2952.4829 9838 9839 9844 9850 9855 9859 9862 9865 9868 9873 9877 9880 9881
2958.7505 9883 9884 9887 9890 9893 9895 9896 9898 9900 9903 9908 9912 9915
2965.0178 9916 9917 9919 9922 9927 9932 9937 9941 9945 9949 9953 9957 9960
2971.2854 9962 9960 9956 9950 9943 9936 9932 9931 9934 9938 9942 9943 9940
2977.5530 9935 9930 9926 9926 9929 9932 9933 9932 9927 9922 9918 9918 9922
2983.8206 9929 9938 9945 9949 9948 9945 9945 9949 9958 9968 9973 9967 9950
2990.0879 9924 9896 9874 9860 9855 9855 9857 9859 9860 9860 9860 9860 9860
2996.3555 9859 9857 9854 9849 9843 9837 9830 9824 9820 9817 9814 9811 9806
3002.6230 9800 9791 9780 9767 9754 9742 9733 9727 9724 9723 9725 9730 9736
3008.8906 9743 9747 9747 9741 9730 9718 9707 9699 9696 9694 9692 9689 9684
3015.1580 9680 9680 9682 9688 9692 9693 9689 9680 9668 9657 9648 9643 9641
3021.4255 9641 9641 9639 9636 9633 9632 9631 9632 9632 9631 9628 9623 9619
3027.6931 9614 9610 9605 9601 9595 9590 9586 9584 9583 9585 9587 9590 9591
3033.9607 9589 9586 9581 9576 9572 9570 9568 9567 9567 9568 9570 9573 9579
3040.2280 9586 9594 9601 9607 9609 9607 9602 9596 9591 9589 9590 9593 9597
3046.4956 9602 9604 9605 9603 9600 9597 9594 9593 9592 9592 9592 9592 9593
3052.7632 9593 9593 9594 9594 9595 9596 9596 9595 9592 9589 9588 9589 9591
3059.0308 9594 9597 9598 9599 9601 9604 9608 9610 9610 9606 9600 9593 9588
3065.2981 9585 9582 9581 9580 9580 9580 9580 9580 9581 9583 9586 9590 9595
3071.5657 9600 9606 9612 9621 9630 9640 9647 9651 9651 9647 9643 9638 9636
3077.8333 9636 9638 9642 9647 9651 9651 9647 9639 9630 9623 9618 9616 9616
3084.1008 9616 9616 9616 9618 9620 9624 9627 9629 9629 9627 9624 9622 9620
3090.3682 9618 9616 9615 9615 9616 9619 9622 9626 9629 9632 9634 9634 9633
3096.6357 9631 9628 9625 9623 9619 9615 9610 9605 9601 9600 9599 9599 9597
3102.9033 9593 9589 9587 9588 9593 9601 9607 9610 9608 9601 9591 9580 9571
3109.1709 9565 9563 9566 9572 9580 9587 9593 9596 9596 9593 9588 9582 9577
3115.4382 9574 9571 9570 9571 9572 9573 9572 9570 9566 9562 9557 9552 9547
3121.7058 9543 9539 9537 9537 9539 9543 9551 9561 9573 9586 9598 9606 9611
3127.9734 9613 9611 9608 9606 9606 9608 9614 9620 9626 9630 9632 9631 9629
3134.2410 9629 9632 9637 9642 9647 9650 9651 9650 9649 9647 9644 9641 9637
3140.5083 9632 9627 9624 9624 9625 9628 9633 9638 9642 9645 9646 9646 9644
3146.7759 9643 9643 9646 9650 9654 9657 9656 9652 9646 9641 9637 9637 9641
3153.0435 9647 9652 9657 9660 9663 9666 9670 9674 9678 9681 9683 9685 9686
3159.3110 9687 9688 9689 9688 9687 9686 9687 9690 9694 9698 9700 9698 9694
3165.5784 9689 9686 9685 9684 9684 9683 9683 9684 9688 9692 9695 9696 9695
3171.8459 9692 9690 9688 9687 9687 9685 9682 9678 9675 9672 9671 9672 9673
3178.1135 9675 9677 9678 9681 9685 9689 9692 9692 9689 9685 9679 9675 9674
3184.3811 9675 9678 9681 9682 9682 9679 9677 9674 9673 9672 9672 9671 9670
3190.6484 9670 9671 9673 9678 9683 9686 9687 9684 9678 9672 9669 9670 9675
3196.9160 9681 9685 9685 9683 9679 9676 9674 9674 9674 9676 9680 9685 9691
3203.1836 9696 9699 9698 9696 9693 9691 9688 9684 9679 9674 9669 9667 9667
3209.4512 9668 9669 9670 9672 9673 9674 9674 9672 9668 9663 9657 9655 9656
3215.7185 9660 9665 9670 9673 9672 9669 9664 9658 9652 9646 9641 9639 9640
3221.9861 9644 9651 9658 9662 9663 9659 9653 9647 9641 9638 9636 9635 9635
3228.2537 9635 9636 9636 9636 9634 9630 9625 9620 9617 9615 9613 9611 9608
3234.5212 9603 9598 9595 9593 9594 9596 9599 9601 9603 9603 9602 9598 9592
3240.7886 9586 9581 9579 9580 9584 9589 9591 9590 9586 9579 9571 9563 9558
3247.0562 9553 9550 9549 9547 9546 9544 9541 9537 9532 9527 9522 9517 9512
3253.3237 9508 9505 9504 9503 9502 9501 9497 9491 9484 9476 9469 9463 9457
3259.5913 9451 9444 9436 9427 9418 9408 9399 9391 9384 9378 9374 9371 9369
3265.8586 9367 9363 9358 9350 9341 9330 9318 9304 9290 9276 9264 9253 9243
3272.1262 9233 9223 9212 9202 9194 9189 9185 9180 9170 9158 9145 9136 9131
3278.3938 9132 9137 9142 9146 9147 9144 9139 9132 9127 9123 9123 9126 9129
3284.6614 9134 9140 9146 9155 9166 9179 9193 9208 9224 9244 9266 9289 9310
3290.9287 9326 9338 9347 9356 9366 9378 9390 9401 9410 9418 9425 9433 9442
3297.1963 9453 9463 9472 9480 9486 9492 9499 9507 9517 9528 9537 9543 9547
3303.4639 9551 9556 9563 9570 9576 9579 9579 9577 9576 9576 9577 9579 9580
3309.7314 9581 9580 9580 9581 9584 9590 9598 9606 9614 9618 9618 9613 9607
3315.9988 9600 9594 9592 9593 9597 9602 9607 9608 9604 9596 9586 9577 9573
3322.2664 9574 9576 9578 9578 9576 9572 9566 9559 9550 9541 9532 9527 9526
3328.5339 9529 9534 9539 9540 9538 9531 9522 9511 9501 9491 9484 9478 9474
3334.8015 9471 9468 9463 9457 9449 9438 9427 9415 9403 9392 9381 9369 9357
3341.0688 9344 9332 9320 9310 9298 9282 9261 9234 9203 9171 9140 9113 9089
3347.3364 9070 9052 9036 9023 9016 9015 9022 9036 9056 9080 9109 9140 9174
3353.6040 9211 9250 9290 9329 9368 9405 9440 9471 9500 9524 9543 9555 9559
3359.8716 9558 9554 9549 9546 9544 9543 9540 9534 9525 9515 9505 9498 9492
3366.1389 9488 9483 9476 9467 9457 9448 9442 9439 9437 9435 9432 9430 9430
3372.4065 9433 9439 9445 9449 9448 9442 9434 9427 9423 9423 9425 9427 9426
3378.6741 9424 9419 9413 9408 9403 9399 9396 9394 9392 9389 9385 9378 9370
3384.9417 9363 9359 9358 9360 9361 9359 9352 9341 9326 9310 9296 9282 9270
3391.2090 9257 9243 9227 9211 9196 9184 9174 9166 9159 9150 9138 9127 9117
3397.4766 9111 9111 9115 9121 9131 9144 9163 9190 9222 9259 9296 9330 9361
3403.7441 9389 9416 9442 9469 9494 9518 9539 9556 9571 9583 9592 9601 9610
3410.0117 9620 9632 9643 9654 9663 9670 9675 9680 9684 9687 9691 9695 9701
3416.2791 9707 9715 9724 9732 9740 9748 9757 9765 9773 9781 9787 9791 9794
3422.5466 9796 9798 9799 9801 9802 9804 9805 9808 9813 9820 9829 9838 9845
3428.8142 9851 9857 9864 9871 9878 9885 9890 9894 9897 9902 9908 9917 9926
3435.0818 9933 9937 9939 9940 9944 9950 9962 9977 9994 10011 10026 10040 10053
3441.3491 10065 10075 10081 10082 10077 10068 10055 10038 10018 9995 9970 9945
3447.1345 9922 9902 9881 9858 9832 9807 9782 9761 9741 9721 9699 9675 9654
3453.4021 9638 9630 9632 9641 9655 9670 9684 9697 9709 9722 9737 9753 9770
3459.6697 9785 9799 9811 9821 9832 9842 9851 9858 9864 9868 9871 9874 9877
3465.9373 9881 9887 9895 9904 9910 9914 9913 9908 9902 9894 9888 9885 9885
3472.2046 9890 9896 9903 9908 9909 9908 9905 9903 9902 9904 9907 9911 9914
3478.4722 9917 9920 9922 9923 9921 9917 9910 9901 9894 9890 9891 9895 9899
3484.7397 9902 9900 9893 9884 9874 9865 9858 9852 9846 9841 9838 9838 9841
3491.0073 9849 9857 9865 9869 9868 9865 9859 9855 9852 9850 9847 9844 9840
3497.2747 9837 9835 9835 9835 9835 9835 9834 9833 9832 9828 9823 9817 9813
3503.5422 9814 9818 9825 9830 9832 9830 9826 9822 9819 9819 9820 9820 9819
3509.8098 9817 9814 9811 9809 9807 9807 9809 9814 9821 9826 9829 9827 9821
3516.0774 9813 9806 9801 9799 9799 9800 9799 9798 9796 9794 9791 9788 9787
3522.3447 9786 9786 9788 9792 9797 9803 9809 9813 9815 9814 9811 9807 9804
3528.6123 9803 9804 9806 9808 9809 9810 9811 9813 9815 9816 9817 9816 9812
3534.8799 9807 9801 9796 9792 9792 9794 9799 9804 9808 9809 9806 9802 9797
3541.1475 9795 9796 9799 9803 9805 9805 9804 9802 9802 9803 9804 9805 9805
3547.4148 9803 9802 9801 9801 9801 9803 9806 9810 9814 9817 9817 9814 9808
3553.6824 9801 9795 9790 9787 9786 9787 9789 9792 9797 9803 9809 9815 9818
3559.9500 9819 9817 9813 9807 9800 9792 9786 9781 9778 9778 9779 9783 9788
3566.2175 9793 9799 9804 9808 9811 9813 9813 9811 9808 9804 9800 9798 9799
3572.4851 9802 9806 9808 9808 9805 9801 9797 9795 9793 9791 9789 9786 9784
3578.7524 9783 9784 9787 9793 9799 9805 9809 9811 9809 9804 9797 9791 9787
3585.0200 9786 9787 9790 9791 9792 9792 9793 9796 9799 9802 9803 9802 9800
3591.2876 9799 9798 9799 9802 9806 9810 9811 9809 9805 9801 9799 9799 9801
3597.5552 9802 9802 9801 9800 9799 9800 9801 9800 9797 9791 9785 9781 9780
3603.8225 9781 9785 9790 9795 9798 9799 9798 9796 9794 9793 9794 9796 9797
3610.0901 9799 9800 9800 9801 9803 9805 9809 9813 9817 9819 9817 9811 9803
3616.3577 9792 9783 9779 9783 9794 9809 9819 9821 9817 9810 9803 9799 9798
3622.6252 9798 9800 9803 9806 9808 9808 9807 9805 9805 9807 9811 9816 9819
3628.8926 9818 9817 9819 9823 9828 9832 9833 9831 9826 9819 9814 9813 9816
3635.1602 9819 9822 9822 9820 9817 9814 9814 9815 9818 9820 9824 9829 9836
3641.4277 9844 9852 9858 9859 9857 9853 9849 9847 9847 9850 9856 9864 9872
3647.6953 9877 9877 9873 9865 9857 9851 9849 9850 9853 9855 9857 9861 9865
3653.9626 9870 9875 9879 9883 9886 9889 9892 9894 9894 9892 9890 9889 9890
3660.2302 9893 9896 9895 9889 9880 9870 9862 9860 9863 9871 9879 9885 9887
3666.4978 9885 9880 9873 9866 9863 9864 9869 9874 9875 9873 9870 9870 9873
3672.7654 9880 9890 9903 9917 9926 9920 9903 9889 9882 9879 9878 9876 9870
3679.0327 9862 9853 9845 9841 9841 9845 9853 9862 9874 9884 9890 9892 9891
3685.3003 9890 9891 9897 9907 9915 9914 9900 9875 9851 9834 9829 9834 9844
3691.5679 9854 9859 9858 9853 9846 9840 9835 9831 9828 9825 9822 9821 9822
3697.8354 9824 9824 9823 9821 9819 9821 9826 9832 9834 9830 9822 9814 9807
3704.1028 9804 9804 9808 9814 9821 9827 9832 9833 9830 9822 9810 9798 9789
3710.3704 9784 9783 9787 9793 9799 9803 9802 9799 9795 9792 9791 9792 9796
3716.6379 9799 9800 9796 9788 9777 9765 9756 9751 9750 9754 9762 9774 9785
3722.9055 9791 9791 9787 9781 9776 9773 9775 9779 9783 9783 9779 9774 9768
3729.1729 9765 9765 9765 9764 9760 9755 9752 9752 9756 9759 9761 9760 9761
3735.4404 9767 9776 9783 9787 9786 9783 9779 9775 9769 9763 9756 9752 9753
3741.7080 9760 9771 9786 9802 9813 9810 9795 9780 9773 9774 9778 9786 9794
3747.9756 9802 9806 9802 9793 9788 9790 9799 9811 9817 9813 9803 9791 9782
3754.2429 9776 9771 9769 9769 9771 9775 9781 9787 9792 9793 9791 9786 9780
3760.5105 9776 9773 9771 9769 9767 9765 9763 9763 9765 9768 9771 9773 9772
3766.7781 9771 9769 9769 9770 9774 9779 9783 9786 9784 9779 9772 9764 9758
3773.0457 9754 9753 9755 9757 9761 9766 9772 9779 9786 9790 9789 9781 9769
3779.3130 9756 9750 9750 9755 9759 9763 9763 9761 9757 9754 9753 9753 9756
3785.5806 9759 9761 9764 9766 9767 9768 9767 9764 9760 9756 9754 9756 9760
3791.8481 9765 9769 9772 9774 9774 9774 9772 9767 9761 9754 9752 9756 9764
3798.1157 9773 9780 9784 9783 9779 9772 9766 9761 9759 9756 9753 9750 9749
3804.3831 9749 9750 9752 9755 9761 9768 9772 9774 9771 9765 9758 9750 9744
3810.6506 9741 9743 9749 9757 9765 9771 9774 9774 9770 9759 9742 9727 9720
3816.9182 9724 9734 9749 9765 9780 9793 9799 9795 9780 9764 9752 9745 9741
3823.1858 9737 9735 9735 9740 9748 9758 9767 9770 9768 9763 9759 9758 9761
3829.4531 9767 9775 9781 9782 9779 9773 9771 9773 9778 9783 9783 9778 9769
3835.7207 9761 9758 9758 9760 9758 9752 9745 9744 9749 9759 9770 9777 9780
3841.9883 9778 9775 9772 9769 9767 9765 9764 9763 9761 9759 9756 9752 9750
3848.2559 9748 9747 9746 9745 9743 9741 9742 9749 9768 9796 9816 9807 9775
3854.5232 9741 9718 9704 9700 9703 9711 9721 9732 9742 9750 9757 9762 9764
3860.7908 9761 9753 9742 9733 9730 9734 9741 9749 9752 9749 9742 9737 9735
3867.0583 9736 9737 9738 9734 9724 9710 9703 9706 9716 9729 9740 9749 9754
3873.3259 9755 9751 9745 9742 9741 9743 9746 9750 9754 9758 9763 9768 9772
3879.5933 9771 9764 9754 9744 9738 9735 9735 9735 9735 9734 9733 9733 9733
3885.8608 9735 9737 9738 9739 9740 9742 9744 9749 9755 9762 9768 9767 9762
3892.1284 9753 9744 9738 9734 9732 9732 9735 9740 9749 9759 9769 9777 9776
3898.3960 9767 9750 9733 9721 9715 9712 9712 9713 9718 9727 9739 9751 9759
3904.6633 9760 9756 9751 9747 9746 9748 9751 9753 9753 9750 9745 9741 9739
3910.9309 9742 9749 9758 9767 9770 9769 9765 9760 9758 9758 9759 9761 9760
3917.1985 9758 9757 9757 9758 9760 9759 9756 9751 9746 9743 9743 9745 9748
3923.4661 9749 9748 9745 9741 9740 9743 9748 9752 9754 9752 9746 9738 9733
3929.7334 9732 9734 9738 9740 9740 9739 9740 9745 9752 9760 9765 9767 9765
3936.0010 9760 9754 9749 9745 9744 9744 9746 9747 9747 9746 9745 9744 9744
3942.2686 9745 9744 9742 9739 9735 9734 9735 9738 9744 9752 9760 9767 9771
3948.5361 9770 9765 9756 9746 9738 9734 9733 9735 9737 9739 9740 9740 9739
3954.8035 9738 9736 9736 9738 9740 9742 9744 9744 9742 9741 9740 9741 9743
3961.0710 9746 9748 9750 9753 9754 9755 9754 9752 9750 9748 9747 9745 9744
3967.3386 9742 9741 9741 9742 9743 9744 9744 9745 9745 9746 9747 9747 9747
3973.6062 9745 9744 9744 9743 9743 9741 9738 9737 9738 9741 9747 9753 9756
3979.8735 9755 9750 9745 9740 9739 9741 9743 9745 9744 9743 9742 9744 9747
3986.1411 9751 9755 9758 9760 9759 9756 9750 9744 9738 9735 9737 9741 9746
3992.4087 9749 9749 9747 9743 9740 9738 9736 9736 9736 9736 9738 9739 9741
3998.6763 9743 9743 9741 9740
##END= 
