##TITLE= INCACNICOTINICO
##JCAMP-DX= 4.24
##DATA TYPE= INFRARED SPECTRUM
##ORIGIN= JASCO
##OWNER= 
##DATE= 22/04/21
##TIME= 16:34:56
##SPECTROMETER/DATA SYSTEM= 
##RESOLUTION= 
##DELTAX=   0.48211674
##XUNITS= 1/CM
##YUNITS= TRANSMITTANCE
##XFACTOR= 1.00000
##YFACTOR= 0.0001
##FIRSTX=   599.7532
##LASTX=  4000.1226
##NPOINTS=     7054
##FIRSTY=      0.91670
##MAXY=      1.07938
##MINY=      0.32554
##XYDATA= (X++(Y..Y))
599.7532 9167 9142 9115 9087 9056 9017 8971 8921 8874 8838 8820 8824 8846 8878
606.5029 8908 8923 8915 8887 8847 8809 8779 8757 8737 8711 8677 8638 8596 8552
613.2525 8506 8458 8412 8372 8342 8319 8302 8286 8273 8269 8274 8284 8290 8283
620.0021 8259 8222 8181 8146 8118 8093 8064 8026 7975 7917 7859 7804 7754 7702
626.7518 7643 7573 7495 7412 7330 7250 7174 7101 7033 6970 6910 6848 6775 6684
633.5014 6573 6447 6314 6177 6040 5901 5758 5616 5481 5361 5267 5206 5185 5211
640.2510 5289 5419 5599 5819 6073 6350 6641 6935 7219 7480 7713 7913 8083 8226
647.0007 8348 8454 8549 8637 8717 8784 8835 8870 8892 8913 8941 8983 9034 9084
653.7503 9121 9135 9130 9113 9095 9086 9086 9093 9105 9118 9132 9145 9154 9154
660.4999 9138 9105 9058 9004 8955 8921 8911 8923 8951 8979 8993 8982 8937 8850
667.2496 8714 8552 8459 8493 8557 8576 8551 8498 8432 8367 8315 8279 8260 8252
673.9992 8243 8218 8159 8047 7880 7670 7446 7236 7054 6894 6730 6545 6345 6168
680.7488 6069 6090 6244 6501 6802 7079 7281 7387 7402 7344 7234 7088 6918 6736
687.4985 6558 6395 6255 6135 6031 5937 5857 5798 5772 5780 5817 5873 5945 6038
694.2481 6163 6329 6531 6752 6967 7160 7331 7490 7649 7817 7989 8156 8308 8439
700.9977 8545 8625 8676 8701 8705 8700 8695 8693 8692 8685 8669 8649 8634 8630
707.7474 8636 8644 8643 8624 8590 8547 8503 8464 8432 8409 8395 8393 8399 8407
714.4970 8410 8403 8387 8366 8341 8308 8263 8202 8128 8049 7976 7916 7866 7818
721.2466 7765 7708 7653 7609 7577 7556 7536 7506 7461 7405 7342 7281 7224 7173
727.9963 7126 7081 7038 6992 6940 6877 6802 6718 6630 6545 6466 6393 6323 6249
734.7459 6166 6070 5962 5840 5708 5567 5418 5261 5097 4928 4756 4584 4418 4259
741.4955 4109 3967 3833 3706 3587 3479 3386 3314 3269 3255 3271 3307 3352 3394
748.2452 3427 3455 3488 3536 3607 3702 3819 3957 4117 4295 4483 4667 4836 4984
754.9948 5113 5225 5323 5399 5450 5476 5491 5515 5562 5631 5700 5741 5734 5674
761.7444 5572 5454 5342 5256 5203 5182 5191 5224 5276 5345 5430 5532 5651 5787
768.4941 5933 6085 6236 6385 6535 6685 6834 6981 7121 7251 7372 7481 7581 7670
775.2437 7747 7813 7869 7916 7955 7987 8012 8030 8044 8054 8063 8071 8079 8086
781.9933 8090 8093 8092 8089 8084 8076 8066 8053 8036 8018 8000 7987 7979 7978
788.7430 7983 7991 7999 8003 8004 8001 7999 8000 8009 8024 8042 8058 8068 8073
795.4926 8075 8078 8084 8093 8101 8103 8097 8083 8065 8047 8032 8018 8001 7978
802.2422 7945 7905 7861 7817 7774 7729 7679 7621 7554 7482 7412 7347 7293 7249
808.9919 7215 7194 7188 7205 7254 7341 7470 7637 7835 8053 8276 8492 8686 8849
815.7415 8978 9072 9138 9183 9214 9237 9252 9260 9262 9261 9260 9259 9256 9248
822.4911 9231 9204 9171 9133 9093 9050 9003 8949 8888 8817 8732 8631 8510 8376
829.2408 8239 8118 8029 7985 7990 8036 8111 8200 8290 8373 8444 8504 8552 8588
835.9904 8611 8620 8617 8603 8584 8564 8548 8537 8532 8530 8533 8541 8555 8577
842.7401 8607 8641 8678 8712 8738 8754 8758 8751 8734 8711 8682 8650 8614 8576
849.4897 8536 8495 8456 8418 8384 8355 8333 8319 8314 8314 8315 8315 8311 8304
856.2393 8295 8285 8273 8257 8237 8215 8191 8168 8145 8123 8104 8092 8087 8091
862.9890 8100 8109 8113 8109 8097 8082 8067 8054 8044 8034 8021 8004 7985 7966
869.7386 7952 7942 7937 7932 7924 7913 7897 7881 7865 7852 7841 7834 7828 7823
876.4882 7820 7816 7813 7809 7804 7800 7796 7794 7795 7796 7798 7799 7799 7796
883.2379 7791 7784 7776 7768 7761 7758 7759 7765 7775 7784 7791 7791 7784 7771
889.9875 7754 7736 7720 7705 7690 7674 7658 7640 7625 7613 7605 7602 7601 7603
896.7371 7606 7613 7622 7632 7639 7643 7641 7634 7626 7619 7613 7608 7603 7597
903.4868 7589 7582 7576 7571 7567 7563 7557 7550 7543 7538 7539 7546 7558 7572
910.2364 7585 7597 7607 7617 7628 7641 7654 7663 7666 7664 7657 7648 7641 7637
916.9860 7636 7638 7639 7638 7635 7630 7625 7621 7619 7620 7623 7625 7626 7624
923.7357 7622 7620 7618 7617 7616 7616 7616 7617 7620 7623 7626 7627 7626 7623
930.4853 7622 7622 7626 7632 7639 7643 7642 7635 7623 7608 7593 7581 7574 7572
937.2349 7571 7569 7565 7558 7549 7542 7538 7537 7539 7538 7533 7522 7505 7484
943.9846 7462 7442 7424 7409 7397 7389 7384 7381 7379 7374 7365 7350 7329 7302
950.7342 7270 7234 7197 7163 7134 7115 7110 7122 7152 7199 7260 7330 7403 7475
957.4838 7541 7601 7651 7692 7724 7745 7758 7764 7766 7765 7763 7760 7758 7757
964.2335 7757 7757 7757 7754 7747 7734 7717 7698 7678 7660 7643 7628 7617 7609
970.9831 7604 7601 7596 7590 7579 7567 7555 7544 7537 7532 7531 7531 7532 7532
977.7327 7531 7526 7518 7507 7496 7487 7480 7476 7477 7481 7490 7503 7517 7530
984.4824 7539 7544 7544 7542 7539 7536 7532 7527 7519 7509 7497 7486 7475 7467
991.2320 7460 7455 7449 7444 7440 7437 7435 7435 7436 7437 7439 7441 7441 7440
997.9816 7437 7431 7423 7414 7406 7399 7395 7391 7387 7382 7374 7366 7358 7354
1004.7313 7355 7364 7380 7399 7415 7422 7415 7393 7358 7317 7276 7240 7211
1010.9988 7189 7172 7158 7148 7139 7131 7123 7115 7107 7098 7088 7079 7071
1017.2663 7062 7054 7046 7037 7029 7021 7014 7009 7003 6995 6985 6970 6951
1023.5338 6930 6909 6890 6874 6862 6853 6849 6846 6844 6842 6839 6834 6829
1029.8014 6825 6824 6829 6843 6867 6904 6951 7005 7060 7112 7156 7190 7214
1036.0688 7231 7245 7256 7268 7281 7295 7314 7338 7372 7416 7470 7534 7608
1042.3364 7695 7794 7908 8034 8168 8305 8440 8567 8684 8787 8872 8937 8982
1048.6039 9009 9021 9022 9013 8997 8976 8950 8921 8890 8857 8824 8790 8755
1054.8715 8723 8692 8666 8643 8622 8603 8585 8569 8555 8542 8529 8516 8502
1061.1389 8487 8471 8455 8440 8427 8418 8412 8410 8411 8412 8415 8417 8421
1067.4065 8427 8437 8448 8459 8469 8477 8483 8487 8488 8488 8485 8481 8476
1073.6740 8469 8460 8448 8432 8413 8394 8375 8358 8343 8329 8318 8309 8303
1079.9415 8298 8293 8285 8272 8255 8237 8220 8204 8189 8171 8149 8124 8099
1086.2090 8078 8064 8060 8064 8075 8093 8116 8143 8174 8207 8239 8269 8292
1092.4766 8307 8314 8315 8313 8311 8312 8318 8325 8334 8341 8346 8348 8347
1098.7440 8345 8343 8342 8344 8346 8348 8347 8343 8335 8324 8312 8299 8285
1105.0116 8270 8254 8236 8214 8190 8162 8133 8103 8074 8047 8023 8002 7982
1111.2791 7963 7945 7929 7918 7915 7926 7956 8008 8084 8181 8296 8421 8550
1117.5466 8675 8788 8884 8957 9008 9041 9058 9065 9063 9054 9037 9014 8987
1123.8141 8960 8934 8914 8899 8892 8894 8905 8921 8938 8948 8943 8921 8879
1130.0817 8821 8751 8677 8604 8535 8473 8416 8361 8304 8243 8179 8114 8054
1136.3491 8003 7966 7942 7931 7929 7932 7937 7941 7945 7950 7956 7963 7971
1142.6167 7977 7982 7984 7984 7980 7974 7967 7960 7954 7951 7949 7948 7947
1148.8842 7946 7944 7943 7943 7944 7944 7943 7940 7934 7925 7914 7904 7896
1155.1517 7891 7892 7897 7905 7913 7919 7923 7924 7926 7929 7935 7944 7955
1161.4192 7967 7979 7991 8000 8008 8014 8020 8026 8032 8038 8043 8046 8046
1167.6868 8045 8043 8042 8041 8040 8039 8037 8035 8033 8031 8030 8027 8023
1173.9542 8015 8003 7986 7966 7945 7923 7904 7885 7869 7852 7834 7815 7794
1180.2218 7772 7751 7731 7711 7693 7677 7665 7661 7664 7676 7696 7724 7758
1186.4893 7798 7843 7892 7943 7994 8046 8098 8149 8199 8245 8288 8325 8358
1192.7568 8389 8420 8453 8488 8522 8553 8576 8591 8597 8596 8590 8581 8569
1199.0243 8556 8540 8524 8507 8489 8471 8454 8437 8422 8409 8397 8385 8373
1205.2919 8359 8345 8332 8321 8313 8306 8300 8294 8288 8282 8277 8274 8273
1211.5593 8274 8277 8280 8284 8287 8289 8290 8290 8290 8291 8292 8294 8298
1217.8269 8301 8305 8309 8313 8317 8322 8327 8332 8337 8343 8349 8356 8365
1224.0944 8374 8382 8389 8392 8391 8387 8380 8372 8361 8347 8330 8309 8284
1230.3619 8256 8225 8194 8162 8132 8103 8077 8051 8026 8000 7974 7948 7923
1236.6294 7899 7876 7855 7835 7817 7799 7783 7766 7747 7725 7699 7670 7637
1242.8970 7601 7565 7528 7493 7460 7430 7403 7377 7351 7323 7293 7261 7229
1249.1644 7196 7160 7122 7080 7034 6984 6932 6879 6826 6772 6717 6661 6604
1255.4320 6545 6485 6424 6363 6304 6248 6198 6153 6115 6082 6055 6034 6022
1261.6995 6020 6029 6048 6076 6112 6149 6178 6189 6169 6118 6051 5994 5977
1267.9670 6016 6102 6203 6280 6305 6271 6190 6083 5972 5874 5792 5725 5672
1274.2345 5632 5605 5591 5589 5597 5613 5636 5665 5700 5739 5779 5820 5862
1280.5021 5903 5945 5987 6028 6068 6106 6142 6176 6209 6241 6271 6298 6321
1286.7695 6341 6357 6370 6382 6391 6397 6401 6402 6401 6400 6398 6398 6397
1293.0371 6395 6393 6391 6389 6387 6386 6388 6391 6397 6406 6418 6435 6457
1299.3046 6484 6518 6556 6598 6642 6686 6729 6773 6819 6871 6930 7000 7079
1305.5721 7169 7267 7371 7480 7588 7693 7787 7865 7921 7949 7947 7913 7847
1311.8396 7750 7626 7480 7323 7169 7030 6915 6828 6766 6724 6692 6664 6637
1318.1072 6610 6587 6571 6568 6577 6599 6631 6673 6724 6781 6845 6913 6984
1324.3746 7058 7133 7209 7286 7364 7441 7517 7592 7666 7738 7809 7880 7949
1330.6422 8018 8086 8154 8222 8291 8358 8422 8484 8542 8597 8650 8701 8751
1336.9097 8796 8836 8870 8902 8932 8965 9000 9034 9066 9092 9113 9129 9142
1343.1772 9152 9161 9168 9176 9184 9192 9201 9208 9214 9219 9223 9227 9230
1349.4447 9234 9238 9243 9249 9257 9266 9273 9277 9279 9278 9277 9276 9277
1355.7123 9279 9281 9283 9283 9281 9277 9269 9260 9248 9233 9217 9200 9183
1361.9797 9167 9154 9144 9138 9133 9127 9120 9111 9100 9088 9075 9062 9049
1368.2473 9038 9029 9021 9013 9004 8992 8979 8963 8945 8926 8907 8890 8879
1374.5148 8872 8870 8868 8864 8858 8849 8839 8828 8817 8807 8798 8790 8782
1380.7823 8776 8769 8762 8755 8746 8735 8725 8713 8700 8686 8672 8660 8654
1387.0498 8654 8661 8668 8672 8671 8668 8663 8657 8649 8641 8630 8617 8601
1393.3174 8585 8568 8554 8544 8539 8535 8530 8521 8508 8494 8479 8465 8454
1399.5848 8445 8435 8424 8410 8395 8378 8360 8340 8321 8303 8289 8277 8267
1405.8524 8255 8238 8215 8185 8146 8101 8050 7995 7938 7879 7819 7759 7699
1412.1199 7644 7594 7553 7522 7499 7487 7484 7493 7510 7534 7561 7591 7633
1418.3875 7706 7827 7982 8132 8249 8332 8398 8459 8525 8604 8695 8793 8886
1424.6549 8966 9031 9085 9131 9174 9213 9248 9278 9304 9329 9356 9384 9409
1430.9225 9427 9437 9443 9446 9449 9450 9447 9437 9419 9396 9370 9352 9348
1437.1899 9355 9362 9363 9356 9346 9335 9325 9319 9316 9316 9319 9323 9328
1443.4575 9334 9339 9345 9350 9353 9356 9358 9362 9370 9383 9400 9416 9428
1449.7250 9435 9440 9443 9448 9455 9465 9475 9482 9486 9484 9478 9467 9453
1455.9926 9441 9436 9446 9472 9506 9540 9569 9593 9611 9625 9636 9644 9649
1462.2600 9652 9651 9647 9643 9644 9654 9671 9688 9699 9703 9701 9695 9687
1468.5276 9677 9663 9644 9618 9584 9540 9487 9430 9381 9351 9335 9323 9308
1474.7950 9290 9272 9259 9255 9260 9269 9278 9285 9291 9297 9303 9312 9323
1481.0626 9336 9352 9371 9392 9414 9436 9455 9470 9480 9485 9489 9493 9500
1487.3301 9508 9514 9514 9513 9518 9539 9579 9628 9673 9706 9729 9745 9756
1493.5977 9761 9761 9759 9759 9764 9777 9793 9808 9819 9831 9848 9868 9887
1499.8651 9899 9899 9889 9869 9843 9816 9790 9767 9746 9722 9693 9658 9619
1506.1327 9597 9615 9662 9704 9731 9748 9759 9767 9773 9776 9778 9780 9785
1512.4001 9792 9799 9804 9804 9797 9784 9766 9748 9739 9745 9766 9788 9802
1518.6677 9806 9802 9789 9769 9746 9732 9738 9758 9776 9787 9793 9793 9790
1524.9352 9784 9776 9768 9760 9754 9750 9750 9752 9753 9750 9741 9724 9703
1531.2028 9677 9649 9621 9593 9570 9554 9544 9537 9527 9512 9490 9461 9426
1537.4702 9385 9336 9278 9219 9180 9173 9181 9183 9175 9156 9131 9105 9078
1543.7378 9053 9033 9019 9013 9011 9007 8998 8982 8960 8934 8906 8880 8861
1550.0052 8851 8846 8839 8826 8806 8781 8751 8722 8699 8685 8676 8665 8646
1556.2728 8619 8582 8532 8468 8403 8389 8456 8532 8573 8587 8586 8576 8561
1562.5403 8544 8525 8509 8498 8495 8499 8507 8510 8507 8495 8476 8453 8433
1568.8079 8426 8442 8476 8511 8537 8556 8572 8589 8604 8612 8609 8592 8559
1575.0753 8507 8435 8354 8286 8241 8208 8178 8148 8118 8090 8065 8046 8033
1581.3429 8025 8026 8036 8058 8093 8138 8192 8249 8307 8361 8408 8447 8478
1587.6105 8501 8516 8524 8525 8520 8512 8499 8483 8465 8443 8419 8394 8370
1593.8779 8350 8337 8335 8349 8380 8434 8512 8613 8735 8870 9010 9145 9269
1600.1455 9378 9469 9544 9606 9659 9704 9746 9783 9817 9849 9880 9910 9940
1606.4130 9968 9994 10015 10031 10045 10057 10070 10082 10091 10097 10099
1611.7163 10098 10093 10084 10073 10056 10036 10010 9977 9934 9882 9829 9791
1617.5017 9768 9750 9730 9703 9671 9635 9598 9562 9526 9488 9445 9397 9348
1623.7692 9307 9274 9245 9216 9185 9149 9111 9072 9039 9012 8990 8971 8952
1630.0367 8932 8913 8894 8877 8859 8840 8818 8792 8763 8733 8707 8692 8688
1636.3042 8687 8684 8677 8668 8657 8643 8626 8608 8588 8570 8554 8540 8524
1642.5718 8504 8480 8449 8415 8377 8338 8300 8269 8252 8252 8260 8267 8267
1648.8392 8256 8237 8211 8178 8140 8095 8045 7993 7970 8011 8069 8090 8084
1655.1068 8067 8047 8026 8005 7986 7969 7954 7941 7927 7911 7892 7869 7845
1661.3743 7822 7805 7798 7798 7800 7796 7787 7772 7754 7734 7712 7688 7662
1667.6418 7635 7610 7592 7585 7587 7592 7595 7593 7587 7575 7556 7532 7506
1673.9093 7480 7461 7455 7461 7465 7459 7442 7418 7393 7369 7346 7328 7314
1680.1769 7301 7285 7264 7236 7200 7158 7115 7088 7109 7165 7199 7200 7183
1686.4443 7159 7134 7112 7095 7083 7077 7076 7077 7078 7080 7080 7077 7070
1692.7119 7056 7035 7009 6981 6959 6954 6977 7015 7037 7033 7011 6979 6945
1698.9794 6915 6913 6974 7073 7129 7131 7111 7088 7069 7059 7059 7069 7087
1705.2469 7111 7140 7169 7195 7212 7221 7223 7223 7228 7239 7256 7275 7290
1711.5144 7299 7300 7296 7293 7295 7308 7330 7354 7369 7372 7366 7365 7386
1717.7820 7440 7508 7559 7584 7593 7594 7594 7596 7601 7610 7625 7646 7670
1724.0494 7693 7713 7731 7747 7764 7781 7797 7810 7818 7824 7832 7846 7867
1730.3170 7888 7902 7904 7896 7882 7871 7881 7935 8019 8086 8117 8126 8126
1736.5845 8124 8122 8119 8118 8122 8137 8167 8203 8232 8248 8252 8253 8257
1742.8521 8268 8288 8311 8332 8346 8354 8359 8363 8367 8374 8383 8393 8401
1749.1195 8405 8407 8411 8425 8450 8482 8512 8534 8547 8553 8555 8554 8552
1755.3871 8551 8553 8561 8575 8591 8606 8616 8620 8619 8615 8610 8608 8613
1761.6545 8626 8643 8657 8665 8667 8666 8665 8662 8658 8653 8647 8642 8642
1767.9221 8650 8660 8668 8668 8660 8645 8628 8614 8614 8631 8655 8672 8680
1774.1896 8681 8678 8675 8675 8677 8681 8684 8684 8681 8674 8665 8657 8654
1780.4572 8659 8668 8676 8681 8679 8673 8665 8660 8661 8667 8675 8680 8680
1786.7246 8675 8667 8660 8654 8649 8644 8636 8624 8610 8596 8591 8599 8618
1792.9922 8639 8652 8655 8652 8647 8643 8640 8638 8634 8627 8617 8607 8599
1799.2596 8596 8596 8599 8603 8608 8614 8621 8628 8632 8633 8631 8628 8623
1805.5272 8617 8610 8603 8596 8591 8587 8585 8582 8579 8576 8574 8575 8578
1811.7947 8582 8585 8584 8581 8577 8573 8569 8568 8567 8568 8570 8573 8577
1818.0623 8579 8581 8582 8581 8580 8579 8577 8576 8572 8566 8558 8550 8542
1824.3297 8539 8541 8548 8554 8556 8552 8542 8530 8517 8508 8507 8515 8529
1830.5973 8540 8547 8548 8547 8544 8542 8541 8543 8545 8546 8546 8544 8539
1836.8647 8532 8524 8517 8512 8509 8509 8511 8513 8513 8510 8502 8490 8477
1843.1323 8469 8470 8482 8498 8509 8512 8508 8502 8498 8498 8503 8511 8516
1849.3998 8518 8515 8510 8504 8501 8500 8503 8507 8513 8518 8522 8523 8521
1855.6674 8515 8507 8499 8493 8491 8494 8498 8501 8502 8500 8497 8494 8494
1861.9348 8495 8498 8500 8501 8501 8499 8495 8489 8480 8468 8455 8443 8437
1868.2024 8438 8450 8468 8488 8504 8516 8522 8527 8530 8531 8530 8527 8520
1874.4698 8511 8505 8503 8506 8514 8522 8528 8529 8525 8520 8517 8520 8530
1880.7374 8544 8558 8565 8566 8559 8549 8539 8532 8529 8529 8529 8531 8533
1887.0049 8535 8539 8544 8552 8561 8570 8578 8583 8584 8582 8577 8571 8562
1893.2725 8551 8537 8524 8515 8513 8520 8534 8552 8567 8576 8575 8565 8552
1899.5399 8539 8534 8536 8546 8561 8575 8586 8593 8597 8599 8600 8602 8604
1905.8075 8607 8609 8608 8604 8598 8590 8584 8581 8581 8582 8583 8583 8582
1912.0750 8582 8583 8585 8587 8588 8588 8589 8592 8596 8600 8599 8591 8577
1918.3425 8565 8559 8564 8575 8587 8593 8590 8579 8569 8570 8585 8610 8637
1924.6100 8656 8662 8655 8638 8616 8592 8571 8554 8545 8544 8552 8566 8585
1930.8776 8605 8623 8637 8646 8650 8650 8649 8647 8644 8637 8626 8612 8601
1937.1450 8601 8612 8632 8651 8661 8657 8644 8628 8617 8613 8616 8619 8618
1943.4126 8614 8611 8610 8615 8625 8641 8662 8685 8706 8718 8716 8697 8665
1949.6801 8631 8605 8594 8598 8613 8632 8653 8673 8693 8710 8721 8722 8710
1955.9476 8686 8656 8624 8598 8585 8589 8613 8651 8693 8724 8737 8729 8712
1962.2151 8699 8702 8721 8748 8773 8789 8800 8816 8845 8887 8927 8946 8933
1968.4827 8892 8839 8794 8769 8764 8767 8765 8747 8718 8692 8692 8731 8809
1974.7501 8907 8996 9052 9067 9051 9024 9002 8990 8983 8973 8959 8947 8944
1981.0177 8951 8962 8971 8972 8968 8962 8959 8959 8962 8965 8969 8970 8968
1987.2852 8959 8944 8928 8922 8934 8968 9021 9082 9135 9166 9167 9141 9100
1993.5527 9057 9019 8991 8975 8967 8962 8956 8943 8926 8910 8902 8911 8937
1999.8202 8976 9014 9036 9035 9012 8980 8958 8958 8981 9019 9056 9082 9092
2006.0878 9092 9088 9088 9094 9104 9113 9117 9112 9097 9072 9041 9010 8984
2012.3552 8964 8948 8936 8926 8921 8927 8946 8980 9024 9071 9108 9130 9135
2018.6228 9129 9123 9124 9133 9141 9136 9111 9069 9021 8985 8977 9000 9050
2024.8903 9111 9167 9199 9199 9169 9123 9081 9057 9056 9074 9098 9119 9130
2031.1578 9130 9121 9105 9089 9082 9092 9123 9170 9221 9259 9273 9260 9228
2037.4253 9189 9155 9135 9128 9125 9117 9097 9071 9052 9051 9072 9104 9133
2043.6929 9145 9138 9121 9109 9110 9127 9153 9177 9191 9191 9180 9169 9167
2049.9604 9180 9206 9235 9256 9259 9243 9212 9177 9151 9140 9145 9161 9179
2056.2278 9193 9201 9205 9210 9221 9238 9258 9274 9278 9269 9250 9229 9214
2062.4954 9212 9219 9232 9244 9250 9249 9239 9221 9193 9160 9127 9103 9097
2068.7629 9110 9138 9174 9207 9231 9244 9247 9241 9231 9220 9211 9209 9214
2075.0305 9223 9231 9233 9228 9217 9204 9190 9179 9171 9166 9164 9167 9174
2081.2979 9187 9202 9218 9232 9242 9247 9248 9248 9246 9244 9242 9240 9237
2087.5654 9237 9239 9245 9252 9258 9261 9258 9252 9244 9240 9241 9247 9254
2093.8330 9260 9262 9261 9262 9265 9272 9278 9280 9274 9262 9249 9242 9241
2100.1006 9247 9257 9268 9279 9290 9301 9310 9316 9317 9314 9309 9303 9295
2106.3679 9285 9273 9258 9242 9230 9222 9222 9229 9243 9260 9277 9290 9296
2112.6355 9295 9289 9281 9274 9271 9270 9272 9277 9287 9301 9314 9322 9317
2118.9031 9299 9272 9246 9229 9228 9239 9258 9277 9289 9294 9291 9283 9275
2125.1707 9270 9272 9280 9290 9297 9297 9290 9280 9272 9274 9285 9300 9313
2131.4380 9314 9301 9278 9252 9233 9231 9248 9278 9311 9335 9341 9326 9296
2137.7056 9264 9243 9244 9270 9310 9348 9369 9364 9339 9308 9284 9274 9280
2143.9731 9294 9309 9322 9329 9329 9326 9323 9328 9344 9375 9412 9444 9457
2150.2407 9445 9412 9372 9340 9328 9335 9348 9351 9330 9285 9227 9180 9164
2156.5081 9188 9243 9305 9350 9365 9358 9352 9364 9396 9432 9452 9445 9412
2162.7756 9364 9315 9274 9245 9226 9215 9210 9210 9214 9222 9232 9244 9256
2169.0432 9269 9280 9290 9296 9297 9292 9279 9257 9227 9190 9153 9124 9111
2175.3108 9117 9140 9168 9188 9191 9178 9161 9153 9166 9204 9255 9300 9323
2181.5781 9313 9277 9227 9177 9136 9107 9086 9072 9066 9070 9087 9114 9148
2187.8457 9187 9227 9266 9302 9329 9343 9338 9314 9275 9230 9190 9165 9161
2194.1133 9175 9197 9216 9222 9213 9198 9188 9190 9202 9215 9221 9215 9201
2200.3809 9188 9184 9191 9203 9213 9212 9199 9173 9140 9106 9077 9057 9048
2206.6482 9050 9060 9072 9083 9093 9102 9112 9124 9136 9145 9147 9144 9135
2212.9158 9123 9110 9097 9085 9075 9068 9066 9070 9081 9096 9112 9127 9135
2219.1833 9135 9127 9112 9094 9077 9066 9063 9069 9086 9111 9141 9167 9184
2225.4509 9185 9171 9149 9126 9108 9099 9094 9088 9078 9063 9048 9038 9037
2231.7183 9042 9052 9063 9069 9068 9062 9052 9043 9036 9035 9038 9044 9052
2237.9858 9057 9056 9047 9030 9008 8988 8976 8976 8986 9000 9011 9015 9010
2244.2534 8999 8985 8971 8957 8950 8951 8963 8985 9008 9027 9035 9031 9015
2250.5210 8992 8963 8932 8905 8885 8877 8881 8896 8917 8938 8957 8970 8978
2256.7883 8979 8975 8969 8961 8955 8950 8945 8938 8926 8912 8899 8889 8887
2263.0559 8891 8902 8915 8927 8936 8938 8935 8931 8928 8930 8937 8946 8953
2269.3235 8957 8955 8951 8946 8942 8939 8934 8927 8918 8909 8900 8891 8882
2275.5911 8874 8868 8867 8873 8885 8900 8914 8924 8929 8932 8934 8937 8940
2281.8584 8941 8938 8931 8922 8914 8909 8907 8907 8908 8908 8908 8908 8907
2288.1260 8906 8902 8897 8889 8880 8873 8867 8864 8864 8865 8867 8868 8869
2294.3936 8868 8866 8864 8862 8862 8864 8865 8866 8865 8863 8860 8858 8857
2300.6611 8856 8855 8855 8854 8854 8854 8853 8850 8845 8840 8836 8836 8839
2306.9285 8843 8847 8847 8844 8838 8832 8827 8826 8827 8829 8829 8827 8824
2313.1960 8822 8823 8825 8828 8829 8828 8824 8819 8814 8808 8800 8791 8781
2319.4636 8773 8768 8767 8771 8777 8784 8792 8800 8806 8810 8810 8805 8798
2325.7312 8789 8782 8776 8769 8762 8752 8743 8735 8733 8736 8744 8752 8758
2331.9985 8760 8756 8748 8740 8734 8731 8732 8735 8739 8743 8748 8752 8755
2338.2661 8752 8743 8729 8713 8700 8694 8697 8706 8719 8731 8740 8745 8744
2344.5337 8740 8736 8737 8742 8751 8757 8758 8751 8738 8722 8705 8690 8681
2350.8013 8679 8685 8695 8704 8708 8705 8695 8683 8672 8665 8661 8659 8655
2357.0686 8651 8649 8655 8669 8689 8707 8716 8715 8708 8701 8699 8703 8708
2363.3362 8709 8704 8692 8678 8669 8669 8679 8698 8721 8743 8759 8767 8766
2369.6038 8759 8750 8740 8730 8723 8719 8719 8723 8731 8740 8749 8755 8758
2375.8713 8758 8757 8756 8756 8758 8761 8767 8773 8779 8782 8782 8780 8776
2382.1387 8773 8772 8773 8776 8778 8780 8780 8779 8779 8780 8780 8779 8778
2388.4063 8776 8775 8776 8780 8784 8789 8792 8794 8795 8795 8796 8797 8798
2394.6738 8799 8798 8797 8795 8794 8793 8793 8794 8794 8793 8790 8786 8783
2400.9414 8781 8782 8785 8790 8793 8795 8794 8792 8790 8789 8792 8797 8801
2407.2087 8804 8803 8798 8792 8786 8782 8781 8782 8785 8789 8792 8795 8798
2413.4763 8801 8804 8809 8814 8819 8822 8822 8819 8815 8810 8809 8811 8817
2419.7439 8823 8827 8829 8828 8825 8821 8819 8818 8820 8823 8828 8833 8835
2426.0115 8833 8827 8820 8814 8812 8814 8820 8827 8833 8836 8836 8832 8828
2432.2788 8824 8822 8823 8827 8834 8841 8847 8851 8852 8851 8850 8849 8849
2438.5464 8849 8851 8854 8860 8866 8872 8876 8876 8873 8868 8863 8859 8857
2444.8140 8857 8859 8863 8869 8876 8882 8884 8882 8878 8874 8872 8874 8881
2451.0815 8890 8899 8906 8911 8912 8912 8909 8905 8900 8895 8891 8889 8890
2457.3489 8893 8896 8899 8901 8902 8901 8902 8904 8909 8914 8919 8922 8923
2463.6165 8922 8921 8920 8920 8921 8923 8926 8930 8934 8938 8941 8943 8943
2469.8840 8942 8941 8938 8936 8933 8931 8930 8931 8935 8940 8945 8950 8952
2476.1516 8954 8956 8958 8963 8970 8977 8984 8990 8993 8995 8994 8990 8986
2482.4189 8981 8978 8979 8984 8992 9000 9007 9009 9007 9001 8994 8990 8989
2488.6865 8992 8998 9005 9010 9014 9017 9019 9023 9027 9031 9034 9037 9040
2494.9541 9042 9046 9049 9052 9054 9054 9054 9053 9051 9050 9049 9050 9053
2501.2217 9059 9066 9074 9080 9084 9084 9083 9083 9084 9088 9094 9101 9107
2507.4890 9113 9118 9121 9123 9122 9120 9117 9113 9111 9110 9111 9114 9118
2513.7566 9124 9130 9133 9135 9133 9130 9129 9130 9135 9142 9150 9156 9159
2520.0242 9160 9160 9159 9160 9161 9164 9167 9171 9174 9176 9177 9177 9174
2526.2917 9170 9166 9165 9167 9173 9182 9189 9194 9195 9193 9193 9195 9199
2532.5591 9204 9207 9208 9208 9209 9213 9219 9225 9229 9228 9224 9217 9210
2538.8267 9207 9207 9211 9217 9223 9228 9231 9233 9234 9236 9239 9242 9245
2545.0942 9248 9250 9254 9258 9262 9264 9263 9259 9254 9251 9251 9254 9260
2551.3618 9265 9270 9272 9273 9273 9275 9278 9283 9290 9297 9301 9302 9299
2557.6292 9295 9292 9291 9291 9292 9292 9291 9291 9291 9296 9304 9315 9326
2563.8967 9335 9340 9338 9332 9323 9316 9312 9311 9313 9317 9320 9324 9328
2570.1643 9333 9339 9344 9348 9349 9349 9347 9344 9343 9342 9344 9346 9349
2576.4319 9352 9354 9355 9355 9354 9355 9357 9362 9368 9375 9381 9384 9385
2582.6995 9382 9378 9374 9372 9373 9377 9384 9390 9395 9396 9395 9391 9389
2588.9668 9388 9390 9392 9394 9396 9397 9398 9400 9402 9403 9404 9405 9407
2595.2344 9410 9414 9417 9420 9422 9424 9425 9428 9431 9434 9437 9439 9440
2601.5020 9439 9436 9431 9427 9425 9425 9427 9430 9433 9435 9436 9435 9432
2607.7695 9429 9427 9426 9428 9432 9436 9440 9441 9439 9435 9431 9427 9425
2614.0369 9425 9427 9431 9435 9440 9444 9446 9447 9447 9447 9446 9446 9447
2620.3044 9449 9451 9452 9454 9456 9457 9459 9460 9459 9458 9457 9457 9458
2626.5720 9461 9464 9467 9468 9467 9465 9463 9463 9464 9466 9469 9470 9470
2632.8396 9469 9468 9468 9469 9468 9468 9466 9465 9465 9466 9467 9469 9469
2639.1069 9468 9466 9466 9467 9470 9474 9479 9482 9484 9485 9485 9486 9487
2645.3745 9488 9489 9489 9488 9487 9485 9483 9483 9484 9486 9490 9495 9499
2651.6421 9502 9503 9504 9505 9506 9508 9510 9512 9514 9517 9519 9522 9525
2657.9097 9526 9526 9525 9523 9522 9523 9524 9527 9529 9532 9533 9534 9534
2664.1770 9534 9535 9535 9537 9538 9539 9540 9539 9538 9537 9538 9539 9543
2670.4446 9546 9549 9551 9552 9552 9553 9553 9555 9556 9557 9558 9558 9558
2676.7122 9559 9560 9561 9562 9563 9563 9564 9565 9566 9567 9569 9570 9572
2682.9797 9573 9575 9577 9577 9576 9574 9571 9569 9567 9568 9569 9571 9572
2689.2471 9572 9571 9570 9569 9570 9573 9575 9577 9578 9577 9576 9574 9572
2695.5146 9571 9570 9570 9570 9571 9574 9578 9582 9585 9588 9590 9591 9590
2701.7822 9588 9585 9582 9579 9578 9578 9579 9579 9578 9577 9576 9576 9578
2708.0498 9581 9584 9587 9589 9591 9592 9592 9592 9592 9593 9594 9596 9599
2714.3171 9603 9605 9606 9607 9607 9608 9610 9612 9613 9612 9609 9605 9601
2720.5847 9599 9599 9601 9603 9605 9607 9608 9608 9608 9608 9608 9609 9610
2726.8523 9610 9611 9611 9611 9610 9607 9604 9601 9599 9600 9604 9609 9615
2733.1199 9620 9622 9622 9620 9618 9616 9614 9613 9614 9615 9617 9619 9620
2739.3872 9620 9619 9617 9616 9615 9614 9614 9614 9613 9614 9615 9618 9622
2745.6548 9626 9630 9632 9633 9633 9631 9631 9630 9631 9631 9630 9628 9626
2751.9224 9624 9623 9623 9624 9626 9627 9628 9628 9628 9627 9626 9626 9627
2758.1899 9628 9628 9626 9623 9620 9618 9618 9619 9621 9622 9621 9620 9619
2764.4573 9619 9621 9624 9627 9628 9629 9628 9627 9626 9625 9623 9620 9616
2770.7249 9612 9610 9609 9610 9610 9610 9609 9608 9607 9608 9610 9613 9616
2776.9924 9617 9616 9613 9610 9607 9605 9605 9607 9609 9612 9613 9613 9613
2783.2600 9611 9610 9609 9608 9607 9605 9602 9599 9596 9594 9594 9594 9594
2789.5273 9595 9595 9595 9594 9593 9590 9587 9584 9582 9581 9582 9583 9584
2795.7949 9586 9586 9586 9584 9582 9580 9579 9579 9580 9581 9583 9583 9584
2802.0625 9584 9583 9581 9579 9577 9576 9575 9576 9577 9578 9580 9581 9582
2808.3301 9582 9582 9581 9580 9580 9580 9580 9579 9577 9575 9574 9575 9577
2814.5974 9579 9581 9581 9580 9578 9576 9575 9574 9574 9574 9576 9578 9581
2820.8650 9584 9586 9588 9590 9592 9593 9594 9594 9593 9592 9591 9591 9590
2827.1326 9590 9589 9588 9588 9589 9590 9591 9591 9589 9585 9582 9579 9579
2833.4001 9581 9584 9588 9592 9596 9599 9601 9603 9603 9602 9600 9598 9599
2839.6675 9601 9605 9610 9613 9615 9614 9613 9611 9609 9609 9610 9612 9613
2845.9351 9615 9616 9617 9619 9623 9627 9632 9637 9641 9642 9642 9641 9639
2852.2026 9638 9638 9640 9642 9645 9649 9653 9654 9655 9654 9653 9653 9655
2858.4702 9657 9661 9664 9666 9667 9667 9668 9669 9671 9674 9676 9676 9676
2864.7375 9674 9672 9673 9676 9681 9688 9694 9698 9700 9700 9699 9698 9698
2871.0051 9698 9698 9697 9697 9697 9698 9700 9701 9702 9702 9701 9702 9703
2877.2727 9705 9707 9708 9709 9708 9706 9705 9704 9703 9703 9703 9704 9705
2883.5403 9705 9705 9704 9702 9701 9701 9703 9707 9713 9718 9722 9723 9722
2889.8076 9719 9716 9714 9714 9717 9721 9724 9727 9727 9727 9727 9728 9730
2896.0752 9732 9733 9733 9733 9732 9731 9732 9732 9733 9732 9730 9727 9724
2902.3428 9724 9726 9732 9740 9747 9752 9752 9749 9744 9741 9740 9742 9745
2908.6104 9747 9746 9742 9737 9734 9732 9733 9734 9735 9735 9735 9734 9735
2914.8777 9737 9740 9744 9749 9752 9754 9755 9755 9754 9752 9753 9754 9758
2921.1453 9762 9767 9770 9772 9772 9770 9768 9766 9765 9766 9768 9771 9773
2927.4128 9776 9780 9784 9789 9794 9798 9800 9800 9798 9795 9790 9784 9778
2933.6804 9773 9772 9773 9778 9784 9790 9795 9799 9800 9799 9797 9794 9791
2939.9478 9791 9791 9792 9793 9792 9791 9789 9788 9788 9787 9788 9788 9789
2946.2153 9791 9792 9793 9794 9794 9794 9795 9794 9792 9790 9788 9787 9789
2952.4829 9793 9798 9800 9799 9794 9788 9782 9777 9774 9772 9771 9770 9771
2958.7505 9773 9776 9780 9784 9786 9786 9783 9778 9772 9766 9760 9756 9754
2965.0178 9753 9752 9749 9746 9743 9742 9742 9743 9743 9742 9739 9735 9732
2971.2854 9730 9730 9732 9734 9736 9736 9734 9731 9728 9724 9721 9719 9716
2977.5530 9712 9709 9706 9703 9701 9699 9698 9696 9695 9692 9690 9686 9683
2983.8206 9680 9679 9679 9680 9680 9678 9675 9671 9669 9667 9667 9666 9665
2990.0879 9664 9664 9667 9672 9679 9686 9694 9701 9708 9716 9724 9733 9742
2996.3555 9748 9752 9751 9747 9741 9735 9731 9727 9724 9718 9710 9699 9688
3002.6230 9679 9673 9670 9669 9667 9665 9663 9661 9662 9665 9670 9676 9683
3008.8906 9690 9697 9701 9704 9705 9706 9708 9712 9719 9727 9734 9741 9745
3015.1580 9748 9748 9748 9748 9749 9751 9756 9763 9770 9778 9783 9785 9784
3021.4255 9781 9778 9778 9779 9783 9786 9790 9794 9799 9805 9812 9819 9825
3027.6931 9830 9834 9837 9840 9841 9841 9839 9838 9838 9841 9846 9852 9857
3033.9607 9858 9857 9855 9851 9847 9844 9841 9840 9839 9839 9839 9840 9841
3040.2280 9843 9845 9849 9853 9856 9859 9862 9865 9869 9872 9874 9876 9877
3046.4956 9878 9876 9873 9868 9864 9863 9866 9874 9884 9893 9899 9901 9900
3052.7632 9897 9896 9895 9896 9896 9897 9899 9903 9907 9911 9913 9913 9909
3059.0308 9903 9895 9887 9879 9873 9868 9866 9865 9865 9865 9865 9864 9862
3065.2981 9859 9854 9848 9841 9835 9831 9827 9822 9814 9802 9787 9771 9756
3071.5657 9747 9745 9749 9758 9770 9782 9795 9808 9820 9831 9842 9851 9859
3077.8333 9867 9873 9879 9885 9889 9893 9895 9895 9894 9892 9889 9887 9885
3084.1008 9884 9885 9888 9894 9901 9908 9914 9919 9923 9927 9932 9938 9945
3090.3682 9951 9954 9955 9953 9950 9948 9949 9953 9958 9963 9967 9969 9971
3096.6357 9972 9974 9976 9979 9980 9979 9978 9976 9975 9975 9978 9981 9987
3102.9033 9992 9996 9999 9999 9997 9993 9989 9987 9987 9990 9994 9998 10000
3109.1709 10001 10002 10003 10006 10010 10015 10019 10021 10021 10020 10020
3114.4741 10022 10026 10031 10037 10040 10041 10039 10036 10034 10035 10038
3119.7773 10044 10050 10054 10055 10053 10050 10048 10047 10049 10051 10055
3125.0806 10059 10064 10069 10074 10076 10075 10070 10065 10063 10065 10071
3130.3840 10078 10083 10085 10085 10083 10081 10082 10085 10089 10095 10099
3135.6873 10103 10105 10106 10105 10102 10099 10095 10091 10088 10088 10091
3140.9905 10097 10105 10113 10119 10122 10120 10117 10113 10111 10112 10114
3146.2937 10117 10117 10116 10113 10111 10111 10114 10118 10120 10121 10119
3151.5972 10117 10115 10114 10116 10117 10120 10122 10125 10127 10128 10129
3156.9004 10131 10133 10136 10139 10142 10144 10144 10143 10142 10142 10143
3162.2036 10147 10151 10156 10160 10163 10165 10164 10162 10158 10153 10149
3167.5068 10148 10149 10155 10162 10170 10175 10178 10178 10178 10178 10179
3172.8103 10181 10185 10189 10192 10195 10195 10193 10190 10187 10187 10190
3178.1135 10195 10201 10206 10210 10211 10213 10215 10218 10219 10219 10217
3183.4167 10215 10214 10217 10223 10232 10242 10251 10258 10263 10266 10267
3188.7200 10269 10271 10272 10273 10273 10273 10274 10275 10276 10276 10276
3194.0234 10276 10280 10286 10295 10305 10314 10319 10321 10320 10318 10317
3199.3267 10317 10319 10322 10324 10325 10325 10326 10327 10331 10336 10342
3204.6299 10346 10348 10349 10349 10350 10352 10356 10360 10361 10361 10359
3209.9331 10355 10352 10349 10347 10347 10348 10351 10355 10359 10362 10362
3215.2366 10361 10359 10357 10357 10357 10358 10361 10363 10366 10368 10369
3220.5398 10370 10369 10367 10365 10363 10360 10357 10356 10355 10354 10353
3225.8430 10350 10346 10341 10336 10332 10330 10328 10326 10325 10326 10328
3231.1462 10331 10334 10336 10337 10337 10337 10337 10336 10332 10324 10313
3236.4497 10300 10288 10281 10280 10283 10291 10299 10307 10313 10317 10317
3241.7529 10314 10309 10303 10296 10291 10287 10287 10290 10295 10300 10303
3247.0562 10303 10300 10295 10289 10285 10284 10285 10288 10291 10293 10293
3252.3594 10292 10291 10288 10285 10282 10281 10282 10287 10294 10301 10306
3257.6628 10308 10306 10302 10299 10299 10302 10307 10311 10313 10311 10308
3262.9661 10305 10304 10306 10310 10314 10317 10319 10322 10326 10331 10338
3268.2693 10344 10347 10348 10346 10342 10339 10338 10338 10341 10345 10350
3273.5725 10354 10357 10358 10358 10357 10356 10354 10352 10352 10354 10360
3278.8760 10368 10378 10387 10393 10396 10399 10401 10403 10403 10401 10399
3284.1792 10397 10399 10403 10409 10413 10415 10416 10418 10422 10430 10440
3289.4824 10451 10460 10467 10471 10473 10473 10471 10469 10468 10468 10469
3294.7856 10472 10474 10477 10480 10484 10490 10497 10505 10512 10518 10522
3300.0891 10526 10531 10536 10541 10545 10547 10550 10553 10557 10564 10571
3305.3923 10576 10580 10582 10583 10583 10583 10584 10585 10587 10591 10595
3310.6956 10600 10605 10609 10613 10617 10621 10627 10632 10638 10643 10647
3315.9988 10651 10657 10664 10673 10681 10688 10691 10689 10684 10677 10674
3321.3022 10676 10683 10695 10708 10720 10728 10733 10735 10734 10733 10731
3326.6055 10731 10731 10733 10735 10738 10742 10747 10754 10762 10769 10774
3331.9087 10775 10774 10771 10771 10774 10780 10787 10792 10794 10791 10786
3337.2119 10780 10775 10770 10765 10760 10754 10748 10742 10737 10732 10728
3342.5154 10722 10714 10704 10692 10679 10668 10658 10647 10636 10624 10611
3347.8186 10598 10587 10577 10568 10558 10546 10534 10520 10507 10494 10484
3353.1218 10477 10472 10469 10468 10467 10466 10465 10463 10461 10459 10456
3358.4250 10452 10448 10444 10442 10443 10446 10451 10456 10460 10463 10463
3363.7285 10462 10462 10461 10461 10462 10464 10468 10474 10481 10487 10490
3369.0317 10491 10489 10487 10485 10485 10485 10485 10486 10488 10490 10495
3374.3350 10502 10509 10515 10519 10520 10519 10520 10523 10529 10536 10542
3379.6382 10543 10541 10536 10533 10534 10539 10546 10553 10557 10558 10560
3384.9417 10563 10568 10576 10584 10589 10594 10599 10605 10614 10623 10630
3390.2449 10633 10632 10628 10623 10621 10620 10620 10619 10616 10613 10611
3395.5481 10612 10618 10626 10633 10636 10633 10622 10605 10585 10565 10546
3400.8513 10529 10513 10497 10480 10463 10449 10442 10442 10450 10461 10473
3406.1548 10481 10484 10481 10472 10461 10450 10441 10435 10434 10435 10438
3411.4580 10441 10442 10440 10436 10431 10425 10419 10413 10408 10405 10404
3416.7612 10405 10407 10409 10408 10405 10399 10392 10386 10383 10381 10379
3422.0645 10375 10368 10360 10355 10355 10360 10367 10371 10370 10362 10352
3427.3679 10343 10339 10340 10343 10345 10343 10338 10332 10329 10329 10332
3432.6711 10338 10343 10344 10343 10338 10332 10324 10316 10306 10295 10283
3437.9744 10271 10261 10252 10244 10236 10228 10218 10208 10199 10193 10190
3443.2776 10188 10185 10181 10175 10167 10160 10152 10145 10138 10131 10127
3448.5811 10125 10126 10130 10134 10136 10135 10131 10126 10122 10121 10124
3453.8843 10128 10131 10131 10127 10121 10116 10114 10115 10118 10119 10117
3459.1875 10110 10101 10092 10086 10082 10080 10079 10078 10077 10075 10074
3464.4907 10073 10072 10073 10073 10073 10070 10066 10061 10056 10052 10050
3469.7942 10049 10048 10045 10041 10037 10034 10032 10033 10035 10037 10038
3475.0974 10036 10032 10027 10021 10017 10016 10019 10024 10029 10032 10032
3480.4006 10031 10029 10029 10030 10032 10033 10034 10034 10035 10036 10037
3485.7039 10038 10039 10039 10039 10039 10040 10041 10041 10039 10034 10028
3491.0073 10022 10016 10013 10010 10006 9997 9983 9963 9939 9916 9895 9879
3496.7927 9869 9861 9857 9853 9850 9845 9838 9826 9811 9794 9779 9768 9763
3503.0601 9762 9764 9766 9767 9766 9762 9757 9749 9738 9726 9715 9706 9702
3509.3276 9704 9711 9719 9726 9728 9723 9714 9703 9693 9687 9684 9683 9680
3515.5952 9677 9673 9669 9668 9669 9670 9672 9672 9670 9667 9662 9655 9647
3521.8628 9638 9631 9627 9629 9633 9637 9639 9636 9631 9626 9622 9622 9623
3528.1301 9624 9625 9624 9622 9622 9623 9626 9631 9635 9637 9637 9634 9629
3534.3977 9621 9614 9607 9604 9605 9607 9609 9609 9608 9606 9605 9606 9609
3540.6653 9612 9613 9610 9600 9586 9570 9556 9547 9545 9550 9559 9567 9573
3546.9329 9576 9576 9575 9573 9569 9564 9556 9548 9542 9541 9543 9550 9557
3553.2002 9564 9569 9573 9574 9573 9571 9568 9566 9564 9561 9557 9552 9546
3559.4678 9541 9539 9538 9538 9535 9530 9523 9517 9511 9506 9500 9492 9482
3565.7354 9473 9469 9475 9490 9509 9526 9537 9542 9542 9540 9538 9537 9536
3572.0029 9533 9527 9520 9515 9513 9517 9524 9533 9540 9544 9545 9544 9542
3578.2705 9540 9539 9540 9543 9546 9548 9548 9545 9540 9535 9531 9527 9521
3584.5378 9514 9502 9488 9475 9465 9464 9470 9484 9500 9516 9528 9536 9539
3590.8054 9538 9533 9526 9518 9510 9502 9497 9493 9493 9497 9503 9509 9513
3597.0730 9514 9512 9509 9505 9501 9499 9499 9501 9505 9510 9516 9522 9527
3603.3406 9531 9531 9527 9521 9512 9503 9495 9489 9487 9488 9491 9497 9503
3609.6079 9508 9511 9512 9511 9507 9499 9489 9478 9470 9466 9467 9471 9476
3615.8755 9480 9483 9486 9488 9489 9489 9488 9487 9488 9491 9495 9501 9507
3622.1431 9513 9518 9521 9522 9520 9514 9505 9494 9480 9464 9445 9423 9404
3628.4106 9401 9425 9465 9499 9520 9528 9525 9516 9502 9487 9477 9473 9476
3634.6780 9481 9485 9486 9485 9484 9487 9493 9502 9512 9518 9520 9517 9511
3640.9456 9504 9498 9495 9496 9499 9501 9499 9491 9477 9458 9436 9416 9400
3647.2131 9389 9385 9383 9385 9393 9408 9429 9450 9469 9483 9495 9504 9511
3653.4807 9513 9510 9503 9493 9484 9481 9485 9494 9504 9512 9518 9523 9525
3659.7480 9525 9523 9521 9519 9519 9522 9526 9532 9538 9543 9545 9544 9540
3666.0156 9531 9520 9505 9488 9470 9450 9433 9424 9428 9445 9463 9474 9475
3672.2832 9466 9450 9428 9401 9376 9370 9399 9449 9490 9511 9518 9517 9512
3678.5508 9505 9499 9495 9493 9494 9497 9502 9508 9515 9520 9523 9523 9520
3684.8181 9515 9508 9500 9491 9482 9475 9469 9463 9456 9447 9441 9441 9450
3691.0857 9466 9485 9500 9509 9514 9514 9513 9508 9503 9497 9492 9490 9491
3697.3533 9495 9503 9511 9519 9525 9526 9523 9518 9513 9512 9514 9517 9516
3703.6208 9512 9506 9500 9495 9491 9487 9479 9468 9457 9448 9446 9450 9455
3709.8882 9456 9449 9439 9434 9441 9458 9475 9486 9493 9497 9503 9511 9520
3716.1558 9526 9527 9523 9516 9508 9505 9506 9509 9512 9510 9505 9499 9493
3722.4233 9491 9491 9489 9483 9473 9462 9454 9453 9460 9473 9486 9495 9498
3728.6909 9495 9488 9477 9466 9459 9460 9468 9477 9480 9473 9460 9444 9433
3734.9583 9431 9438 9450 9462 9473 9484 9496 9506 9512 9515 9514 9511 9507
3741.2258 9500 9490 9474 9453 9427 9409 9418 9454 9489 9505 9505 9494 9475
3747.4934 9451 9425 9404 9398 9406 9423 9440 9456 9475 9499 9523 9536 9537
3753.7610 9529 9516 9503 9495 9497 9505 9515 9519 9517 9511 9504 9501 9505
3760.0283 9510 9515 9519 9521 9523 9524 9523 9518 9509 9501 9500 9509 9526
3766.2959 9543 9553 9553 9545 9532 9517 9509 9512 9523 9537 9545 9548 9546
3772.5635 9543 9541 9541 9544 9548 9551 9551 9548 9542 9533 9521 9511 9505
3778.8311 9506 9514 9523 9530 9533 9535 9535 9535 9533 9530 9526 9522 9522
3785.0984 9525 9532 9539 9545 9548 9550 9551 9553 9557 9560 9560 9558 9554
3791.3660 9549 9545 9544 9543 9542 9537 9528 9515 9503 9496 9497 9508 9522
3797.6335 9534 9538 9533 9519 9498 9474 9458 9462 9487 9518 9541 9554 9557
3803.9011 9556 9549 9539 9526 9512 9503 9502 9511 9522 9531 9537 9541 9543
3810.1685 9545 9546 9547 9549 9551 9551 9546 9537 9523 9506 9495 9497 9513
3816.4360 9534 9547 9548 9539 9522 9500 9474 9452 9443 9457 9487 9515 9533
3822.7036 9541 9542 9540 9536 9528 9520 9512 9508 9512 9523 9537 9549 9553
3828.9712 9549 9537 9520 9506 9502 9509 9523 9534 9538 9535 9527 9518 9510
3835.2385 9501 9490 9478 9469 9466 9473 9484 9491 9493 9493 9495 9501 9509
3841.5061 9516 9519 9521 9525 9533 9544 9553 9558 9558 9556 9555 9555 9556
3847.7737 9555 9551 9543 9530 9514 9496 9478 9458 9435 9413 9398 9407 9443
3854.0413 9486 9514 9525 9525 9521 9521 9526 9538 9550 9558 9558 9552 9544
3860.3086 9536 9532 9532 9533 9529 9520 9507 9493 9487 9492 9508 9523 9532
3866.5762 9530 9521 9506 9487 9472 9468 9483 9509 9532 9541 9539 9528 9513
3872.8438 9499 9492 9498 9516 9537 9553 9562 9564 9560 9551 9538 9520 9501
3879.1113 9484 9477 9484 9500 9518 9531 9538 9541 9540 9538 9535 9532 9532
3885.3787 9535 9542 9551 9558 9561 9562 9558 9551 9540 9527 9516 9512 9518
3891.6462 9531 9543 9550 9553 9553 9553 9554 9556 9556 9553 9544 9533 9523
3897.9138 9516 9515 9519 9525 9527 9525 9520 9513 9507 9501 9497 9496 9500
3904.1814 9508 9521 9535 9547 9553 9555 9553 9551 9548 9548 9551 9556 9562
3910.4487 9568 9572 9575 9576 9576 9576 9573 9569 9562 9553 9544 9538 9539
3916.7163 9544 9551 9555 9554 9551 9548 9550 9557 9567 9576 9579 9578 9571
3922.9839 9562 9553 9547 9544 9546 9550 9554 9556 9555 9553 9549 9545 9542
3929.2515 9540 9538 9535 9532 9531 9535 9543 9554 9564 9571 9573 9572 9568
3935.5188 9563 9559 9557 9556 9557 9557 9558 9558 9556 9553 9550 9548 9547
3941.7864 9548 9550 9553 9555 9558 9561 9562 9562 9559 9553 9545 9537 9532
3948.0540 9531 9534 9539 9544 9550 9556 9564 9571 9578 9582 9582 9578 9571
3954.3215 9564 9559 9558 9559 9561 9562 9563 9564 9565 9566 9566 9563 9557
3960.5889 9551 9546 9544 9547 9555 9565 9573 9579 9580 9578 9574 9571 9570
3966.8564 9570 9570 9569 9567 9564 9564 9566 9570 9575 9578 9579 9577 9573
3973.1240 9568 9564 9560 9557 9556 9559 9564 9571 9577 9581 9583 9582 9580
3979.3916 9578 9577 9578 9578 9578 9577 9576 9575 9575 9575 9576 9576 9576
3985.6589 9575 9573 9572 9572 9574 9576 9579 9580 9580 9577 9573 9567 9561
3991.9265 9558 9558 9561 9567 9574 9580 9584 9585 9584 9581 9577 9573 9570
3998.1941 9567 9567 9569 9572 9574
##END= 
