##TITLE= INC32
##JCAMP-DX= 4.24
##DATA TYPE= INFRARED SPECTRUM
##ORIGIN= JASCO
##OWNER= 
##DATE= 22/04/12
##TIME= 11:23:44
##SPECTROMETER/DATA SYSTEM= 
##RESOLUTION= 
##DELTAX=   0.48211674
##XUNITS= 1/CM
##YUNITS= TRANSMITTANCE
##XFACTOR= 1.00000
##YFACTOR= 0.0001
##FIRSTX=   599.7532
##LASTX=  4000.1226
##NPOINTS=     7054
##FIRSTY=      0.82290
##MAXY=      1.02911
##MINY=      0.67611
##XYDATA= (X++(Y..Y))
599.7532 8229 8297 8374 8469 8588 8727 8876 9020 9147 9251 9335 9404 9461 9506
606.5029 9539 9560 9571 9579 9586 9594 9604 9615 9627 9641 9661 9685 9715 9746
613.2525 9774 9793 9796 9782 9752 9713 9674 9640 9614 9593 9575 9553 9524 9486
620.0021 9440 9391 9349 9326 9329 9358 9405 9454 9491 9505 9494 9466 9432 9401
626.7518 9378 9361 9343 9317 9279 9230 9178 9133 9104 9094 9098 9106 9104 9084
633.5014 9045 8992 8935 8884 8843 8813 8793 8776 8762 8747 8730 8711 8689 8661
640.2510 8625 8577 8516 8442 8367 8305 8270 8267 8294 8336 8382 8424 8467 8518
647.0007 8585 8673 8776 8884 8984 9063 9115 9138 9138 9125 9110 9096 9086 9075
653.7503 9061 9044 9024 9002 8980 8956 8928 8894 8851 8796 8725 8641 8548 8454
660.4999 8367 8290 8224 8169 8124 8086 8049 8007 7956 7895 7829 7760 7688 7618
667.2496 7582 7686 8060 8533 8845 9013 9123 9216 9301 9377 9434 9469 9480 9471
673.9992 9449 9418 9386 9358 9337 9324 9317 9313 9314 9321 9335 9354 9373 9386
680.7488 9389 9384 9375 9363 9351 9335 9315 9288 9255 9219 9179 9137 9094 9052
687.4985 9014 8984 8964 8950 8940 8924 8897 8859 8815 8778 8757 8760 8781 8808
694.2481 8820 8803 8750 8666 8564 8463 8377 8309 8254 8195 8115 8002 7861 7708
700.9977 7565 7451 7371 7317 7276 7239 7208 7204 7257 7391 7613 7906 8229 8537
707.7474 8797 8993 9137 9251 9352 9449 9533 9590 9612 9602 9573 9544 9526 9525
714.4970 9536 9552 9564 9568 9563 9551 9538 9528 9525 9527 9531 9530 9521 9502
721.2466 9479 9453 9430 9408 9389 9370 9353 9338 9325 9314 9308 9306 9308 9315
727.9963 9322 9325 9322 9312 9298 9284 9270 9258 9243 9224 9198 9166 9132 9102
734.7459 9081 9072 9073 9078 9082 9077 9063 9041 9018 9000 8990 8990 8999 9012
741.4955 9022 9024 9014 8990 8956 8916 8875 8837 8800 8761 8714 8655 8587 8514
748.2452 8441 8371 8303 8235 8161 8081 7996 7912 7838 7785 7763 7778 7830 7915
754.9948 8023 8146 8278 8416 8561 8712 8865 9012 9145 9259 9358 9446 9531 9615
761.7444 9694 9761 9808 9832 9833 9819 9797 9772 9749 9728 9708 9684 9652 9613
768.4941 9567 9521 9481 9450 9429 9414 9398 9378 9349 9315 9280 9250 9229 9216
775.2437 9207 9193 9170 9138 9100 9065 9039 9022 9009 8993 8969 8935 8895 8855
781.9933 8819 8785 8752 8714 8669 8616 8555 8490 8422 8354 8287 8225 8168 8122
788.7430 8089 8074 8078 8098 8130 8166 8203 8239 8274 8310 8346 8381 8412 8434
795.4926 8445 8443 8431 8410 8380 8343 8300 8251 8198 8144 8090 8038 7989 7943
802.2422 7904 7877 7874 7905 7980 8101 8262 8451 8650 8844 9023 9181 9317 9430
808.9919 9519 9585 9626 9645 9646 9637 9625 9616 9610 9606 9599 9586 9566 9540
815.7415 9511 9482 9455 9431 9409 9385 9358 9328 9296 9264 9234 9205 9177 9148
822.4911 9120 9094 9070 9048 9026 9001 8969 8930 8888 8843 8800 8762 8727 8693
829.2408 8658 8619 8575 8527 8479 8432 8384 8334 8279 8217 8151 8083 8015 7948
835.9904 7881 7816 7754 7701 7661 7639 7638 7662 7712 7790 7894 8022 8168 8324
842.7401 8479 8623 8748 8850 8928 8989 9038 9080 9117 9147 9167 9176 9175 9167
849.4897 9155 9143 9133 9127 9125 9128 9133 9138 9140 9138 9134 9129 9127 9128
856.2393 9131 9135 9135 9131 9124 9118 9116 9120 9129 9139 9145 9147 9142 9135
862.9890 9126 9121 9119 9123 9132 9144 9157 9170 9180 9185 9185 9181 9175 9168
869.7386 9161 9153 9143 9126 9099 9062 9015 8962 8911 8866 8827 8792 8755 8714
876.4882 8668 8621 8579 8544 8518 8498 8482 8465 8447 8428 8407 8386 8366 8346
883.2379 8330 8318 8311 8309 8309 8311 8313 8312 8310 8307 8306 8308 8311 8315
889.9875 8314 8305 8289 8266 8241 8217 8196 8178 8161 8143 8123 8101 8078 8054
896.7371 8030 8005 7980 7956 7931 7907 7881 7855 7826 7796 7762 7726 7687 7645
903.4868 7602 7560 7520 7483 7448 7414 7377 7335 7290 7242 7194 7147 7102 7059
910.2364 7018 6976 6936 6898 6862 6829 6799 6776 6762 6761 6778 6815 6873 6951
916.9860 7046 7153 7269 7390 7513 7634 7750 7858 7955 8039 8111 8170 8217 8253
923.7357 8278 8293 8301 8306 8309 8313 8318 8323 8328 8335 8344 8357 8373 8391
930.4853 8412 8436 8462 8492 8524 8558 8592 8625 8658 8692 8729 8769 8809 8849
937.2349 8887 8922 8955 8988 9019 9050 9079 9106 9132 9157 9181 9203 9223 9239
943.9846 9252 9263 9274 9285 9298 9311 9324 9337 9349 9359 9369 9377 9384 9390
950.7342 9397 9404 9411 9417 9421 9424 9425 9426 9426 9426 9426 9424 9422 9419
957.4838 9416 9415 9415 9414 9411 9403 9389 9366 9335 9298 9256 9212 9166 9118
964.2335 9068 9016 8961 8903 8846 8791 8745 8710 8687 8676 8674 8679 8689 8706
970.9831 8733 8772 8824 8886 8955 9025 9094 9158 9215 9263 9302 9330 9348 9360
977.7327 9366 9369 9371 9372 9373 9375 9376 9377 9377 9377 9376 9375 9375 9376
984.4824 9378 9380 9383 9384 9383 9379 9372 9364 9353 9339 9321 9300 9277 9256
991.2320 9237 9222 9207 9190 9170 9145 9119 9094 9070 9047 9024 8998 8968 8934
997.9816 8898 8862 8831 8808 8793 8789 8792 8800 8807 8810 8807 8798 8782 8761
1004.7313 8735 8703 8667 8628 8588 8549 8511 8473 8434 8394 8353 8315 8283
1010.9988 8261 8252 8258 8280 8321 8381 8458 8551 8654 8760 8865 8962 9048
1017.2663 9123 9183 9228 9260 9280 9290 9294 9293 9289 9280 9266 9248 9225
1023.5338 9199 9170 9141 9112 9083 9055 9025 8994 8962 8930 8899 8871 8849
1029.8014 8833 8824 8818 8812 8805 8793 8777 8756 8731 8702 8671 8638 8605
1036.0688 8576 8551 8533 8523 8523 8533 8554 8584 8619 8657 8696 8733 8771
1042.3364 8810 8849 8888 8927 8965 9002 9035 9063 9086 9103 9114 9121 9126
1048.6039 9130 9135 9140 9147 9152 9156 9157 9155 9152 9147 9141 9135 9129
1054.8715 9121 9113 9107 9103 9100 9098 9096 9091 9084 9075 9065 9055 9046
1061.1389 9038 9032 9027 9021 9014 9004 8994 8983 8972 8963 8956 8950 8942
1067.4065 8934 8924 8914 8903 8891 8879 8868 8858 8849 8842 8835 8825 8812
1073.6740 8795 8775 8754 8734 8716 8700 8684 8667 8647 8625 8602 8578 8555
1079.9415 8532 8511 8490 8470 8452 8435 8420 8408 8400 8397 8401 8412 8429
1086.2090 8450 8473 8496 8516 8527 8528 8514 8488 8451 8410 8369 8332 8302
1092.4766 8278 8262 8256 8263 8286 8327 8384 8456 8538 8623 8707 8784 8851
1098.7440 8905 8948 8981 9007 9030 9049 9064 9074 9078 9078 9077 9076 9080
1105.0116 9087 9096 9105 9112 9116 9116 9116 9115 9113 9109 9101 9089 9074
1111.2791 9057 9040 9025 9013 9003 8995 8988 8981 8973 8963 8952 8941 8929
1117.5466 8917 8903 8889 8872 8854 8836 8818 8801 8784 8766 8746 8724 8701
1123.8141 8677 8653 8628 8604 8581 8559 8538 8515 8489 8459 8423 8383 8338
1130.0817 8289 8233 8169 8097 8020 7943 7873 7819 7792 7797 7838 7912 8010
1136.3491 8120 8228 8321 8393 8439 8463 8469 8462 8450 8436 8423 8413 8407
1142.6167 8404 8406 8411 8419 8427 8433 8435 8431 8421 8406 8386 8362 8336
1148.8842 8307 8276 8246 8217 8191 8168 8146 8125 8103 8079 8052 8023 7994
1155.1517 7968 7947 7930 7917 7906 7896 7885 7873 7862 7851 7841 7833 7824
1161.4192 7815 7803 7789 7771 7751 7730 7707 7685 7663 7642 7620 7597 7574
1167.6868 7550 7526 7502 7477 7453 7428 7405 7382 7360 7338 7315 7293 7271
1173.9542 7252 7236 7221 7208 7193 7177 7160 7142 7125 7108 7092 7077 7061
1180.2218 7046 7032 7023 7018 7018 7022 7030 7044 7064 7092 7129 7177 7234
1186.4893 7301 7376 7457 7543 7632 7723 7816 7909 8003 8096 8186 8273 8355
1192.7568 8435 8513 8592 8671 8748 8822 8889 8949 9002 9049 9092 9132 9167
1199.0243 9197 9220 9235 9242 9242 9237 9226 9209 9184 9151 9111 9068 9023
1205.2919 8979 8936 8895 8856 8818 8783 8753 8727 8706 8689 8675 8662 8649
1211.5593 8634 8616 8591 8559 8519 8475 8429 8385 8345 8311 8284 8264 8250
1217.8269 8242 8240 8244 8255 8273 8300 8337 8387 8448 8521 8603 8693 8787
1224.0944 8886 8986 9085 9182 9275 9360 9437 9504 9564 9614 9658 9693 9723
1230.3619 9747 9768 9784 9798 9808 9815 9819 9819 9817 9812 9807 9800 9792
1236.6294 9784 9773 9762 9749 9735 9721 9708 9697 9687 9677 9667 9657 9647
1242.8970 9638 9630 9623 9616 9608 9599 9592 9586 9582 9577 9569 9557 9540
1249.1644 9519 9496 9472 9447 9420 9388 9352 9312 9268 9223 9181 9146 9123
1255.4320 9116 9125 9150 9186 9228 9268 9303 9328 9343 9349 9350 9348 9345
1261.6995 9344 9342 9336 9325 9306 9281 9250 9218 9187 9158 9131 9100 9065
1267.9670 9022 8975 8929 8890 8863 8848 8845 8848 8854 8858 8860 8857 8849
1274.2345 8835 8813 8785 8751 8711 8667 8618 8568 8515 8461 8405 8346 8286
1280.5021 8225 8167 8114 8068 8030 7997 7968 7940 7915 7892 7872 7857 7846
1286.7695 7842 7845 7854 7866 7877 7883 7881 7873 7860 7845 7833 7826 7824
1293.0371 7830 7841 7855 7870 7885 7898 7909 7917 7923 7924 7921 7912 7898
1299.3046 7879 7856 7831 7805 7781 7761 7747 7739 7738 7743 7754 7772 7795
1305.5721 7825 7860 7901 7946 7995 8046 8100 8155 8213 8276 8342 8413 8487
1311.8396 8563 8640 8716 8792 8868 8942 9016 9089 9160 9228 9292 9351 9405
1318.1072 9455 9500 9540 9576 9608 9637 9664 9689 9712 9733 9751 9765 9776
1324.3746 9785 9793 9802 9812 9823 9836 9851 9869 9888 9909 9929 9949 9967
1330.6422 9983 9997 10008 10018 10025 10031 10036 10041 10045 10048 10050
1335.9454 10051 10050 10049 10049 10049 10051 10053 10053 10051 10045 10037
1341.2488 10028 10021 10015 10010 10006 10003 10000 9997 9994 9989 9982 9974
1347.0342 9965 9955 9946 9936 9926 9915 9902 9888 9871 9854 9837 9819 9801
1353.3016 9782 9761 9735 9707 9677 9645 9613 9578 9541 9502 9462 9421 9380
1359.5692 9338 9294 9248 9203 9160 9120 9084 9053 9027 9008 8993 8984 8978
1365.8367 8976 8975 8976 8980 8985 8991 8999 9008 9018 9029 9042 9056 9073
1372.1042 9093 9116 9143 9176 9217 9266 9318 9371 9423 9475 9527 9578 9628
1378.3717 9674 9715 9750 9779 9803 9822 9838 9850 9859 9865 9867 9868 9869
1384.6393 9872 9878 9883 9886 9883 9873 9856 9839 9825 9814 9805 9796 9785
1390.9067 9773 9760 9748 9736 9723 9709 9690 9666 9635 9603 9574 9551 9534
1397.1743 9520 9505 9487 9461 9430 9396 9366 9339 9313 9288 9262 9237 9213
1403.4418 9189 9164 9136 9107 9078 9054 9036 9021 9010 9000 8994 8991 8991
1409.7094 8993 8993 8991 8983 8970 8952 8931 8909 8885 8860 8835 8808 8780
1415.9768 8752 8726 8705 8689 8679 8678 8692 8724 8770 8822 8874 8927 8983
1422.2444 9042 9104 9167 9223 9267 9297 9317 9330 9338 9345 9349 9352 9353
1428.5118 9351 9344 9331 9314 9295 9278 9263 9248 9232 9216 9199 9186 9176
1434.7794 9169 9165 9162 9161 9163 9171 9183 9196 9210 9224 9238 9253 9268
1441.0469 9282 9294 9301 9304 9302 9293 9279 9260 9238 9213 9185 9153 9111
1447.3145 9057 8992 8925 8865 8815 8770 8722 8666 8598 8519 8437 8362 8298
1453.5819 8249 8213 8189 8177 8180 8201 8241 8298 8362 8427 8490 8553 8615
1459.8495 8679 8748 8825 8913 9007 9103 9197 9289 9383 9487 9598 9701 9780
1466.1169 9836 9876 9909 9939 9966 9989 10007 10021 10035 10049 10064 10077
1471.9023 10082 10072 10051 10031 10019 10012 10006 9997 9980 9954 9922 9891
1477.6877 9861 9831 9799 9761 9718 9669 9620 9578 9549 9539 9548 9573 9608
1483.9553 9646 9683 9715 9741 9763 9785 9809 9835 9864 9894 9925 9956 9987
1490.2228 10012 10029 10039 10047 10055 10064 10072 10081 10089 10097 10101
1495.5261 10101 10096 10088 10081 10077 10074 10071 10065 10059 10053 10049
1500.8293 10045 10042 10038 10035 10034 10034 10037 10042 10048 10053 10053
1506.1327 10039 10012 9989 9975 9966 9956 9946 9938 9931 9926 9922 9919 9914
1512.4001 9908 9903 9900 9899 9901 9905 9910 9913 9913 9907 9899 9895 9896
1518.6677 9902 9911 9922 9934 9943 9943 9933 9922 9917 9917 9921 9926 9933
1524.9352 9938 9942 9944 9945 9947 9950 9952 9953 9954 9953 9953 9954 9956
1531.2028 9961 9969 9977 9985 9986 9979 9965 9953 9946 9943 9945 9951 9961
1537.4702 9974 9989 10001 9999 9973 9937 9914 9903 9897 9889 9881 9872 9865
1543.7378 9858 9849 9834 9815 9797 9782 9773 9767 9762 9757 9749 9734 9709
1550.0052 9678 9647 9623 9607 9597 9589 9580 9565 9542 9513 9489 9473 9465
1556.2728 9461 9460 9460 9458 9446 9415 9377 9358 9353 9353 9354 9356 9358
1562.5403 9360 9361 9361 9357 9351 9342 9334 9327 9322 9319 9317 9316 9313
1568.8079 9303 9283 9255 9231 9212 9198 9183 9168 9151 9135 9122 9112 9105
1575.0753 9102 9104 9113 9128 9144 9160 9176 9192 9208 9223 9237 9248 9255
1581.3429 9259 9261 9261 9260 9258 9255 9250 9244 9236 9227 9216 9204 9190
1587.6105 9175 9160 9144 9128 9111 9094 9074 9053 9029 9005 8980 8952 8923
1593.8779 8890 8854 8817 8782 8751 8724 8697 8668 8634 8592 8538 8473 8395
1600.1455 8304 8204 8096 7982 7865 7750 7647 7567 7522 7522 7576 7686 7854
1606.4130 8066 8303 8537 8750 8931 9080 9198 9289 9355 9400 9431 9455 9474
1612.6805 9491 9505 9516 9525 9534 9541 9546 9548 9543 9534 9526 9521 9517
1618.9480 9512 9506 9499 9493 9488 9484 9481 9474 9460 9438 9414 9394 9382
1625.2156 9373 9366 9357 9343 9323 9297 9269 9243 9220 9199 9180 9160 9140
1631.4830 9121 9103 9089 9079 9073 9069 9066 9058 9038 9010 8985 8967 8954
1637.7506 8943 8935 8927 8920 8914 8907 8900 8892 8882 8872 8862 8854 8847
1644.0181 8841 8836 8831 8825 8817 8809 8799 8785 8768 8749 8731 8715 8702
1650.2856 8693 8687 8684 8686 8691 8686 8646 8586 8544 8516 8493 8470 8447
1656.5531 8423 8398 8374 8350 8326 8303 8281 8260 8240 8221 8201 8175 8140
1662.8207 8099 8059 8025 7997 7971 7945 7918 7891 7866 7842 7817 7787 7748
1669.0881 7703 7662 7629 7601 7571 7539 7508 7481 7460 7443 7425 7402 7369
1675.3557 7331 7299 7279 7267 7260 7255 7253 7254 7261 7272 7287 7303 7318
1681.6232 7331 7343 7354 7368 7397 7454 7520 7563 7587 7606 7625 7647 7671
1687.8907 7699 7730 7764 7799 7833 7865 7895 7922 7948 7973 7998 8023 8046
1694.1582 8070 8097 8134 8187 8249 8303 8342 8372 8398 8424 8454 8508 8611
1700.4258 8742 8832 8879 8911 8945 8986 9035 9092 9152 9207 9254 9295 9330
1706.6932 9360 9385 9405 9421 9435 9447 9457 9466 9473 9480 9487 9495 9503
1712.9608 9512 9520 9524 9525 9521 9516 9512 9509 9507 9505 9501 9491 9480
1719.2283 9468 9458 9448 9439 9430 9424 9418 9412 9406 9399 9391 9382 9372
1725.4958 9362 9352 9343 9335 9330 9326 9321 9312 9299 9281 9261 9243 9230
1731.7633 9219 9209 9196 9172 9129 9074 9032 9004 8981 8959 8936 8912 8891
1738.0309 8872 8852 8825 8786 8738 8693 8655 8624 8594 8561 8520 8474 8431
1744.2983 8394 8365 8340 8318 8296 8276 8256 8238 8224 8213 8209 8211 8222
1750.5659 8243 8273 8304 8332 8357 8381 8408 8439 8473 8510 8547 8586 8624
1756.8334 8662 8697 8730 8762 8793 8824 8857 8892 8931 8973 9013 9043 9061
1763.1010 9071 9076 9081 9086 9091 9096 9101 9107 9116 9131 9151 9174 9198
1769.3684 9220 9241 9263 9290 9327 9376 9431 9478 9511 9535 9555 9575 9597
1775.6360 9621 9648 9673 9697 9717 9736 9754 9770 9786 9799 9810 9817 9822
1781.9034 9824 9826 9828 9831 9837 9845 9856 9866 9876 9883 9887 9887 9884
1788.1710 9881 9879 9880 9883 9889 9895 9900 9902 9900 9894 9888 9883 9880
1794.4385 9877 9873 9867 9859 9852 9847 9845 9848 9853 9859 9864 9865 9863
1800.7061 9857 9849 9840 9832 9826 9822 9821 9822 9822 9823 9825 9827 9832
1806.9735 9838 9845 9853 9861 9868 9875 9880 9884 9887 9888 9888 9887 9887
1813.2411 9887 9888 9891 9894 9898 9901 9903 9905 9906 9908 9910 9911 9912
1819.5085 9914 9916 9919 9922 9926 9929 9933 9937 9942 9947 9951 9951 9946
1825.7761 9939 9932 9927 9925 9922 9919 9914 9905 9896 9888 9884 9883 9884
1832.0436 9886 9887 9889 9889 9888 9885 9880 9875 9869 9864 9860 9855 9849
1838.3112 9844 9839 9837 9837 9839 9842 9846 9850 9856 9864 9873 9880 9879
1844.5786 9871 9860 9848 9839 9833 9828 9826 9826 9828 9832 9836 9837 9836
1850.8462 9833 9830 9828 9825 9823 9819 9815 9812 9813 9818 9826 9834 9841
1857.1136 9846 9847 9848 9851 9857 9866 9877 9887 9895 9898 9898 9894 9889
1863.3812 9886 9885 9887 9889 9892 9893 9893 9891 9890 9889 9890 9892 9896
1869.6487 9899 9900 9896 9890 9884 9878 9877 9879 9884 9889 9891 9890 9887
1875.9163 9883 9882 9885 9891 9896 9897 9891 9878 9863 9851 9846 9850 9861
1882.1837 9873 9884 9891 9893 9891 9885 9879 9873 9870 9870 9873 9878 9883
1888.4513 9885 9885 9882 9879 9877 9877 9878 9881 9884 9887 9888 9889 9890
1894.7188 9891 9892 9895 9897 9900 9903 9905 9906 9908 9909 9912 9917 9922
1900.9863 9926 9928 9926 9922 9918 9916 9916 9917 9918 9917 9918 9920 9925
1907.2538 9932 9938 9942 9944 9944 9943 9942 9941 9938 9935 9932 9929 9926
1913.5214 9921 9915 9912 9915 9927 9948 9975 10000 10015 10013 9995 9969 9946
1919.7888 9929 9921 9920 9923 9927 9930 9930 9928 9926 9925 9927 9933 9941
1926.0564 9950 9960 9967 9972 9974 9972 9970 9967 9966 9971 9982 10000 10019
1932.3239 10033 10034 10020 9998 9974 9957 9945 9936 9923 9904 9884 9870 9868
1938.5914 9877 9896 9918 9943 9972 10003 10032 10049 10044 10021 9992 9970
1944.3768 9964 9969 9980 9987 9983 9969 9951 9933 9921 9914 9913 9919 9931
1950.6443 9947 9962 9970 9966 9954 9943 9944 9961 9992 10025 10046 10048 10031
1956.9119 10004 9981 9971 9980 10003 10031 10053 10062 10055 10033 10003 9970
1962.6973 9944 9933 9941 9966 10000 10031 10051 10060 10062 10063 10061 10050
1968.4827 10022 9976 9922 9877 9855 9866 9902 9950 9992 10015 10016 9998 9970
1974.7501 9941 9919 9909 9917 9945 9994 10060 10127 10178 10196 10175 10123
1980.5355 10054 9985 9933 9903 9898 9915 9949 9991 10028 10050 10049 10026
1986.3209 9991 9958 9941 9940 9948 9951 9940 9918 9897 9891 9911 9954 10008
1992.5885 10057 10092 10111 10118 10113 10095 10065 10028 9992 9964 9944 9928
1998.3739 9910 9887 9869 9865 9884 9926 9981 10038 10086 10118 10130 10122
2004.1593 10093 10052 10008 9978 9968 9975 9986 9987 9977 9965 9966 9985 10013
2010.4268 10031 10026 10003 9983 9988 10029 10098 10172 10233 10270 10287
2015.7301 10291 10287 10274 10248 10210 10164 10117 10076 10042 10016 9996
2021.0333 9979 9963 9944 9919 9893 9873 9869 9887 9929 9987 10050 10106 10150
2027.3009 10179 10194 10197 10187 10167 10142 10118 10099 10088 10080 10068
2032.6041 10049 10024 9997 9975 9957 9943 9928 9910 9891 9874 9865 9869 9884
2038.8717 9906 9929 9944 9947 9941 9932 9925 9922 9921 9918 9911 9902 9899
2045.1392 9905 9920 9941 9963 9980 9991 9996 9997 9996 9994 9992 9986 9971
2051.4067 9946 9912 9878 9853 9845 9855 9877 9901 9916 9918 9909 9891 9873
2057.6743 9859 9854 9861 9877 9898 9914 9919 9910 9892 9873 9865 9871 9889
2063.9417 9912 9929 9935 9931 9924 9918 9919 9926 9932 9935 9930 9920 9905
2070.2092 9888 9872 9860 9853 9854 9862 9872 9881 9885 9884 9881 9877 9877
2076.4768 9876 9873 9865 9850 9833 9820 9813 9814 9819 9823 9824 9824 9825
2082.7444 9831 9841 9852 9861 9864 9863 9860 9859 9864 9873 9884 9892 9892
2089.0117 9881 9860 9833 9807 9788 9781 9787 9804 9824 9843 9856 9863 9865
2095.2793 9867 9870 9878 9887 9894 9896 9890 9878 9863 9846 9831 9817 9805
2101.5469 9798 9797 9804 9818 9836 9852 9863 9869 9872 9872 9872 9871 9870
2107.8145 9870 9871 9873 9878 9881 9881 9876 9866 9856 9851 9856 9870 9889
2114.0818 9905 9911 9904 9887 9867 9853 9848 9852 9858 9863 9864 9860 9854
2120.3494 9847 9841 9838 9840 9846 9856 9867 9875 9878 9873 9863 9851 9842
2126.6169 9839 9845 9857 9870 9878 9877 9866 9850 9836 9830 9836 9851 9873
2132.8845 9892 9904 9906 9902 9900 9906 9921 9940 9951 9944 9919 9883 9851
2139.1519 9834 9836 9852 9871 9884 9890 9888 9884 9880 9879 9881 9884 9886
2145.4194 9883 9871 9853 9837 9835 9854 9894 9945 9992 10026 10043 10042 10024
2151.6870 9986 9931 9868 9815 9796 9823 9896 9994 10084 10136 10138 10100
2157.4724 10050 10014 10008 10023 10039 10034 10002 9953 9902 9866 9851 9859
2163.2578 9888 9932 9984 10035 10078 10107 10118 10112 10095 10072 10050 10028
2169.0432 10004 9973 9931 9883 9837 9806 9797 9810 9837 9868 9894 9914 9931
2175.3108 9945 9954 9951 9934 9906 9877 9858 9854 9863 9879 9896 9911 9927
2181.5781 9942 9956 9961 9954 9936 9915 9899 9894 9899 9907 9907 9895 9875
2187.8457 9854 9842 9845 9866 9899 9936 9968 9985 9983 9966 9941 9921 9913
2194.1133 9920 9935 9948 9951 9940 9919 9898 9885 9888 9905 9930 9951 9955
2200.3809 9937 9903 9865 9834 9819 9817 9823 9832 9840 9850 9862 9875 9883
2206.6482 9882 9872 9859 9846 9838 9835 9834 9833 9832 9832 9833 9837 9842
2212.9158 9849 9855 9861 9861 9854 9841 9828 9822 9828 9844 9864 9876 9873
2219.1833 9855 9829 9807 9798 9805 9826 9852 9875 9889 9893 9891 9889 9890
2225.4509 9895 9897 9892 9878 9857 9836 9824 9824 9832 9842 9843 9833 9813
2231.7183 9792 9779 9780 9794 9813 9830 9841 9844 9846 9850 9857 9863 9860
2237.9858 9849 9832 9820 9818 9828 9844 9855 9854 9840 9822 9810 9808 9815
2244.2534 9824 9823 9809 9785 9760 9745 9747 9764 9790 9815 9833 9844 9849
2250.5210 9852 9852 9847 9835 9818 9800 9787 9784 9789 9797 9804 9806 9806
2256.7883 9807 9813 9824 9835 9844 9846 9843 9837 9832 9828 9823 9814 9800
2263.0559 9783 9763 9745 9733 9728 9734 9751 9775 9801 9823 9833 9831 9820
2269.3235 9805 9794 9789 9792 9800 9807 9808 9802 9791 9777 9768 9765 9769
2275.5911 9776 9781 9782 9779 9775 9773 9776 9782 9787 9790 9789 9785 9781
2281.8584 9779 9779 9780 9781 9781 9780 9778 9774 9770 9764 9759 9754 9751
2288.1260 9749 9749 9750 9753 9756 9761 9767 9774 9779 9779 9774 9765 9755
2294.3936 9748 9746 9749 9754 9758 9759 9756 9753 9751 9751 9752 9755 9757
2300.6611 9760 9762 9764 9764 9764 9761 9758 9754 9750 9747 9744 9742 9740
2306.9285 9739 9738 9738 9739 9740 9740 9740 9741 9744 9750 9758 9765 9769
2313.1960 9769 9765 9761 9760 9762 9766 9768 9766 9758 9747 9734 9726 9724
2319.4636 9731 9747 9767 9788 9803 9810 9807 9800 9791 9785 9782 9780 9778
2325.7312 9773 9769 9766 9765 9767 9768 9768 9765 9759 9751 9744 9740 9741
2331.9985 9748 9757 9765 9768 9768 9765 9763 9764 9767 9771 9773 9770 9764
2338.2661 9758 9754 9754 9758 9764 9772 9780 9788 9793 9795 9791 9784 9773
2344.5337 9762 9750 9738 9726 9715 9705 9698 9695 9695 9699 9706 9716 9728
2350.8013 9737 9742 9742 9740 9739 9741 9748 9759 9771 9783 9794 9803 9814
2357.0686 9827 9841 9857 9868 9869 9855 9828 9796 9770 9761 9772 9799 9829
2363.3362 9851 9859 9855 9848 9843 9841 9838 9828 9806 9775 9742 9713 9693
2369.6038 9682 9680 9683 9688 9691 9690 9685 9677 9668 9660 9655 9655 9658
2375.8713 9662 9667 9670 9670 9667 9662 9656 9652 9649 9650 9652 9654 9655
2382.1387 9653 9651 9650 9650 9651 9652 9650 9645 9638 9631 9628 9628 9632
2388.4063 9636 9638 9636 9634 9631 9630 9632 9634 9635 9634 9633 9631 9630
2394.6738 9631 9632 9633 9633 9631 9629 9626 9624 9624 9625 9626 9628 9629
2400.9414 9630 9631 9632 9632 9629 9623 9617 9613 9613 9618 9626 9637 9645
2407.2087 9650 9651 9648 9643 9638 9635 9635 9637 9640 9643 9645 9644 9641
2413.4763 9637 9632 9629 9628 9630 9634 9639 9644 9646 9647 9646 9642 9637
2419.7439 9631 9625 9619 9615 9613 9615 9619 9626 9633 9638 9641 9640 9636
2426.0115 9631 9626 9621 9619 9619 9620 9622 9624 9625 9627 9628 9629 9630
2432.2788 9630 9629 9630 9632 9635 9638 9638 9636 9632 9627 9625 9626 9629
2438.5464 9633 9636 9637 9638 9638 9639 9640 9642 9643 9641 9638 9631 9623
2444.8140 9616 9612 9612 9616 9620 9623 9622 9619 9614 9610 9607 9604 9602
2451.0815 9600 9598 9596 9596 9596 9596 9593 9590 9586 9584 9585 9589 9594
2457.3489 9598 9599 9595 9588 9579 9572 9569 9571 9576 9580 9583 9581 9578
2463.6165 9574 9572 9574 9578 9584 9589 9592 9593 9592 9590 9587 9584 9582
2469.8840 9580 9577 9572 9565 9558 9553 9550 9551 9555 9561 9566 9568 9567
2476.1516 9563 9559 9558 9559 9561 9562 9560 9555 9548 9545 9545 9549 9555
2482.4189 9559 9559 9556 9552 9548 9545 9543 9541 9537 9532 9528 9526 9526
2488.6865 9527 9530 9533 9535 9535 9533 9529 9522 9515 9511 9511 9515 9520
2494.9541 9525 9527 9524 9519 9512 9506 9502 9499 9499 9499 9501 9502 9503
2501.2217 9502 9498 9493 9487 9482 9479 9479 9483 9490 9499 9508 9514 9515
2507.4890 9510 9501 9491 9482 9477 9473 9471 9469 9465 9462 9459 9459 9463
2513.7566 9469 9475 9480 9482 9479 9472 9465 9460 9457 9457 9458 9457 9454
2520.0242 9449 9444 9443 9445 9450 9456 9460 9460 9457 9451 9446 9442 9441
2526.2917 9442 9445 9449 9451 9452 9451 9447 9442 9436 9431 9429 9430 9433
2532.5591 9438 9443 9446 9446 9445 9442 9439 9437 9435 9433 9433 9432 9432
2538.8267 9430 9428 9426 9424 9422 9421 9418 9414 9409 9403 9398 9395 9395
2545.0942 9397 9401 9404 9406 9407 9407 9406 9406 9405 9405 9407 9410 9414
2551.3618 9420 9426 9431 9436 9441 9448 9455 9463 9469 9474 9477 9478 9479
2557.6292 9479 9478 9477 9474 9472 9473 9478 9485 9493 9499 9502 9501 9499
2563.8967 9497 9496 9495 9496 9497 9498 9499 9499 9498 9495 9492 9489 9487
2570.1643 9487 9486 9484 9480 9475 9471 9468 9469 9471 9472 9472 9469 9464
2576.4319 9458 9454 9453 9454 9456 9459 9461 9460 9455 9448 9439 9430 9423
2582.6995 9420 9419 9421 9426 9433 9440 9447 9451 9452 9449 9444 9440 9438
2588.9668 9439 9443 9449 9456 9463 9471 9479 9487 9495 9502 9507 9511 9516
2595.2344 9523 9532 9543 9553 9560 9560 9557 9551 9547 9547 9552 9559 9566
2601.5020 9573 9577 9580 9582 9583 9582 9579 9576 9572 9571 9572 9575 9579
2607.7695 9582 9582 9581 9577 9573 9569 9567 9568 9570 9572 9575 9576 9577
2614.0369 9578 9577 9575 9570 9565 9562 9560 9561 9563 9566 9567 9568 9568
2620.3044 9568 9569 9569 9568 9565 9561 9557 9553 9550 9548 9548 9549 9553
2626.5720 9556 9559 9560 9559 9557 9555 9552 9550 9548 9546 9545 9543 9542
2632.8396 9540 9539 9536 9534 9531 9530 9530 9530 9532 9533 9533 9533 9532
2639.1069 9532 9533 9534 9535 9535 9533 9530 9527 9524 9522 9521 9521 9520
2645.3745 9520 9519 9518 9517 9517 9518 9519 9520 9520 9520 9518 9515 9512
2651.6421 9510 9508 9506 9506 9505 9505 9504 9503 9503 9502 9502 9503 9504
2657.9097 9505 9505 9504 9503 9502 9501 9500 9501 9502 9505 9509 9513 9516
2664.1770 9517 9515 9512 9509 9508 9508 9509 9511 9512 9513 9512 9511 9511
2670.4446 9512 9515 9518 9522 9526 9530 9534 9537 9540 9543 9546 9549 9552
2676.7122 9554 9555 9554 9553 9551 9551 9551 9552 9553 9553 9552 9551 9549
2682.9797 9547 9546 9544 9541 9539 9536 9535 9534 9535 9536 9538 9539 9540
2689.2471 9539 9538 9538 9537 9537 9537 9537 9538 9538 9537 9536 9534 9533
2695.5146 9532 9533 9534 9536 9538 9539 9538 9537 9537 9538 9541 9546 9553
2701.7822 9559 9565 9570 9574 9577 9581 9586 9592 9598 9604 9610 9617 9624
2708.0498 9631 9637 9644 9649 9653 9657 9662 9668 9674 9682 9688 9694 9698
2714.3171 9700 9701 9702 9704 9706 9708 9708 9708 9709 9710 9712 9715 9717
2720.5847 9719 9720 9719 9719 9718 9717 9717 9718 9719 9720 9722 9724 9725
2726.8523 9725 9723 9721 9719 9719 9719 9720 9722 9723 9724 9723 9721 9719
2733.1199 9717 9716 9717 9720 9723 9727 9729 9729 9726 9721 9716 9711 9707
2739.3872 9706 9706 9707 9708 9709 9709 9708 9708 9707 9707 9707 9707 9706
2745.6548 9705 9704 9704 9703 9703 9703 9702 9701 9699 9696 9693 9690 9688
2751.9224 9686 9685 9683 9681 9678 9675 9674 9673 9675 9676 9678 9679 9680
2758.1899 9679 9678 9677 9675 9673 9673 9674 9676 9678 9680 9679 9677 9675
2764.4573 9674 9674 9675 9675 9676 9676 9676 9676 9677 9677 9677 9675 9673
2770.7249 9671 9669 9668 9668 9668 9670 9672 9673 9673 9672 9671 9670 9670
2776.9924 9672 9675 9677 9677 9676 9672 9667 9663 9660 9658 9657 9656 9655
2783.2600 9653 9651 9650 9649 9650 9650 9650 9648 9646 9642 9640 9638 9637
2789.5273 9637 9637 9635 9633 9631 9629 9629 9630 9632 9633 9632 9630 9626
2795.7949 9622 9620 9619 9620 9621 9620 9618 9615 9611 9608 9605 9605 9606
2802.0625 9609 9612 9614 9614 9611 9608 9604 9601 9600 9599 9597 9596 9594
2808.3301 9592 9591 9590 9589 9587 9585 9584 9584 9584 9585 9586 9586 9586
2814.5974 9584 9584 9584 9584 9585 9585 9582 9578 9572 9565 9559 9555 9554
2820.8650 9555 9557 9559 9559 9559 9558 9557 9556 9555 9555 9555 9556 9556
2827.1326 9557 9555 9553 9549 9546 9544 9544 9545 9547 9548 9548 9546 9543
2833.4001 9540 9539 9539 9542 9546 9550 9553 9555 9555 9553 9551 9549 9546
2839.6675 9545 9545 9546 9550 9554 9559 9565 9570 9574 9576 9578 9580 9582
2845.9351 9584 9587 9589 9589 9586 9582 9576 9570 9565 9561 9558 9557 9558
2852.2026 9560 9563 9566 9568 9569 9567 9564 9560 9556 9552 9550 9548 9547
2858.4702 9548 9548 9548 9548 9548 9547 9547 9547 9545 9543 9539 9534 9530
2864.7375 9527 9527 9529 9529 9527 9524 9520 9517 9517 9518 9522 9525 9529
2871.0051 9533 9536 9538 9538 9537 9534 9532 9531 9532 9535 9538 9542 9544
2877.2727 9544 9544 9542 9541 9541 9543 9546 9550 9552 9552 9550 9546 9541
2883.5403 9537 9534 9532 9531 9531 9534 9538 9542 9546 9550 9552 9554 9555
2889.8076 9555 9555 9553 9550 9549 9550 9554 9559 9565 9570 9572 9573 9571
2896.0752 9569 9566 9564 9564 9566 9568 9572 9576 9579 9582 9584 9585 9585
2902.3428 9584 9583 9582 9582 9584 9586 9588 9589 9590 9592 9595 9598 9601
2908.6104 9602 9603 9604 9605 9608 9609 9609 9605 9600 9594 9590 9588 9589
2914.8777 9592 9595 9599 9603 9608 9613 9618 9621 9624 9625 9626 9626 9626
2921.1453 9626 9625 9626 9626 9627 9627 9625 9623 9620 9619 9619 9622 9626
2927.4128 9629 9630 9629 9625 9620 9615 9612 9610 9608 9607 9606 9606 9608
2933.6804 9611 9615 9617 9618 9618 9616 9615 9614 9613 9610 9605 9599 9592
2939.9478 9586 9582 9580 9578 9578 9577 9578 9580 9582 9586 9589 9591 9591
2946.2153 9591 9591 9591 9593 9595 9596 9596 9595 9594 9593 9592 9590 9588
2952.4829 9585 9584 9583 9584 9585 9586 9584 9581 9577 9574 9573 9573 9573
2958.7505 9574 9573 9572 9570 9568 9566 9565 9564 9564 9565 9566 9568 9570
2965.0178 9571 9570 9569 9568 9567 9568 9569 9572 9577 9582 9586 9588 9586
2971.2854 9581 9575 9569 9568 9571 9578 9587 9596 9602 9604 9603 9599 9595
2977.5530 9591 9589 9589 9589 9590 9592 9595 9600 9606 9611 9614 9615 9613
2983.8206 9611 9607 9604 9600 9597 9595 9596 9598 9603 9609 9616 9621 9624
2990.0879 9625 9623 9619 9614 9610 9606 9604 9603 9602 9601 9600 9600 9600
2996.3555 9601 9605 9610 9614 9617 9618 9617 9614 9612 9611 9612 9617 9624
3002.6230 9633 9642 9647 9648 9643 9635 9627 9620 9616 9616 9618 9622 9625
3008.8906 9627 9630 9632 9634 9636 9637 9636 9634 9632 9631 9631 9634 9639
3015.1580 9646 9653 9659 9662 9661 9656 9649 9642 9637 9635 9637 9640 9643
3021.4255 9647 9650 9653 9655 9656 9656 9656 9656 9657 9660 9665 9670 9675
3027.6931 9677 9678 9677 9676 9675 9674 9675 9676 9678 9681 9684 9686 9688
3033.9607 9689 9690 9693 9696 9700 9703 9706 9706 9705 9702 9699 9695 9693
3040.2280 9693 9695 9698 9702 9706 9709 9711 9713 9715 9717 9719 9721 9722
3046.4956 9724 9725 9726 9726 9726 9726 9727 9728 9730 9733 9736 9737 9737
3052.7632 9735 9731 9729 9729 9732 9738 9744 9747 9748 9746 9743 9741 9742
3059.0308 9745 9747 9748 9746 9743 9741 9741 9744 9748 9752 9754 9754 9752
3065.2981 9749 9747 9745 9746 9749 9752 9755 9757 9758 9759 9760 9763 9766
3071.5657 9769 9770 9769 9768 9767 9767 9769 9772 9775 9778 9779 9780 9781
3077.8333 9781 9781 9781 9781 9782 9785 9790 9793 9795 9794 9791 9788 9786
3084.1008 9786 9788 9790 9793 9795 9796 9796 9795 9794 9794 9795 9795 9795
3090.3682 9794 9795 9797 9801 9807 9813 9818 9822 9825 9828 9830 9833 9836
3096.6357 9840 9844 9847 9849 9849 9846 9842 9837 9833 9830 9831 9833 9837
3102.9033 9842 9845 9848 9849 9850 9850 9850 9849 9848 9848 9848 9850 9852
3109.1709 9856 9859 9860 9859 9855 9847 9839 9831 9827 9828 9833 9840 9849
3115.4382 9856 9863 9869 9871 9871 9867 9860 9853 9848 9848 9852 9858 9865
3121.7058 9870 9872 9871 9867 9862 9860 9862 9867 9875 9882 9885 9882 9875
3127.9734 9867 9862 9861 9864 9869 9874 9877 9880 9881 9882 9884 9885 9887
3134.2410 9887 9888 9888 9889 9889 9889 9888 9885 9882 9879 9877 9877 9879
3140.5083 9883 9887 9892 9896 9898 9900 9900 9900 9901 9902 9905 9909 9914
3146.7759 9919 9921 9921 9919 9917 9916 9917 9919 9922 9923 9921 9918 9914
3153.0435 9911 9911 9915 9921 9928 9934 9939 9942 9944 9945 9946 9945 9943
3159.3110 9939 9934 9929 9926 9925 9927 9933 9939 9946 9950 9953 9952 9949
3165.5784 9945 9940 9937 9936 9939 9945 9954 9963 9970 9974 9974 9973 9971
3171.8459 9969 9969 9970 9973 9977 9981 9985 9988 9989 9987 9981 9974 9968
3178.1135 9964 9964 9970 9979 9989 9998 10004 10007 10006 10003 9999 9997 9997
3184.3811 9999 10004 10009 10013 10014 10012 10009 10005 10003 10002 10003
3189.6843 10006 10010 10014 10019 10022 10024 10024 10025 10026 10030 10034
3194.9875 10039 10042 10044 10044 10043 10043 10042 10043 10044 10046 10048
3200.2908 10049 10051 10052 10053 10055 10056 10057 10056 10055 10053 10052
3205.5942 10054 10057 10060 10062 10062 10061 10060 10060 10061 10063 10065
3210.8975 10067 10070 10074 10078 10083 10087 10090 10092 10091 10089 10086
3216.2007 10083 10081 10082 10086 10091 10096 10098 10099 10100 10102 10106
3221.5039 10110 10114 10116 10114 10110 10104 10098 10095 10094 10095 10099
3226.8074 10104 10110 10116 10120 10123 10125 10125 10125 10123 10120 10116
3232.1106 10112 10107 10103 10100 10098 10098 10098 10099 10100 10102 10103
3237.4138 10104 10103 10102 10101 10100 10100 10097 10093 10087 10081 10079
3242.7170 10081 10086 10094 10099 10100 10096 10089 10082 10076 10072 10070
3248.0205 10071 10074 10077 10081 10083 10084 10083 10080 10076 10074 10072
3253.3237 10072 10072 10072 10071 10069 10065 10061 10058 10058 10060 10064
3258.6270 10066 10066 10061 10054 10045 10038 10034 10032 10033 10035 10038
3263.9302 10041 10044 10048 10052 10057 10060 10061 10059 10056 10051 10047
3269.2336 10044 10044 10044 10045 10045 10045 10045 10044 10044 10044 10043
3274.5369 10041 10039 10037 10036 10036 10038 10040 10041 10042 10041 10039
3279.8401 10036 10032 10029 10027 10026 10026 10026 10026 10026 10027 10030
3285.1433 10034 10039 10042 10044 10043 10042 10042 10044 10047 10051 10053
3290.4468 10054 10053 10050 10046 10041 10037 10034 10033 10034 10036 10038
3295.7500 10039 10038 10037 10036 10036 10036 10038 10040 10043 10044 10043
3301.0532 10041 10037 10034 10034 10036 10039 10043 10044 10044 10043 10042
3306.3564 10044 10048 10051 10054 10054 10053 10053 10056 10061 10066 10070
3311.6599 10071 10069 10065 10062 10059 10059 10061 10065 10070 10075 10079
3316.9631 10080 10079 10075 10070 10065 10062 10062 10063 10065 10067 10068
3322.2664 10067 10065 10063 10061 10058 10055 10052 10049 10047 10046 10046
3327.5696 10047 10048 10049 10049 10045 10039 10031 10022 10015 10009 10006
3332.8730 10005 10004 10005 10005 10004 10002 10000 9997 9994 9991 9989 9988
3338.6584 9986 9983 9980 9978 9974 9970 9963 9956 9948 9944 9943 9945 9949
3344.9258 9953 9954 9953 9951 9950 9950 9951 9950 9945 9938 9928 9920 9914
3351.1934 9912 9912 9914 9916 9918 9919 9920 9920 9920 9920 9921 9922 9923
3357.4609 9924 9924 9922 9918 9914 9910 9908 9905 9903 9901 9901 9901 9903
3363.7285 9906 9909 9910 9911 9909 9908 9907 9906 9906 9905 9902 9896 9889
3369.9958 9882 9878 9877 9881 9887 9894 9898 9900 9899 9895 9890 9886 9884
3376.2634 9884 9884 9884 9884 9882 9880 9878 9877 9878 9879 9880 9880 9879
3382.5310 9876 9872 9869 9867 9867 9867 9866 9866 9866 9869 9874 9881 9887
3388.7986 9890 9889 9884 9878 9873 9870 9868 9868 9866 9864 9862 9862 9865
3395.0659 9871 9878 9884 9886 9883 9877 9868 9861 9857 9855 9854 9853 9850
3401.3335 9846 9842 9840 9841 9845 9851 9858 9864 9868 9869 9868 9864 9859
3407.6011 9855 9852 9852 9853 9855 9855 9852 9848 9843 9840 9840 9843 9848
3413.8687 9854 9859 9861 9859 9854 9847 9841 9838 9839 9844 9850 9855 9857
3420.1360 9858 9857 9856 9854 9852 9848 9845 9843 9842 9844 9847 9851 9854
3426.4036 9855 9855 9853 9850 9847 9844 9843 9844 9846 9847 9846 9843 9837
3432.6711 9831 9827 9825 9826 9830 9834 9838 9841 9842 9842 9841 9840 9839
3438.9387 9837 9834 9833 9833 9835 9839 9843 9847 9848 9847 9844 9840 9838
3445.2061 9836 9835 9834 9833 9833 9833 9834 9835 9836 9837 9838 9840 9840
3451.4736 9841 9840 9839 9837 9835 9833 9831 9829 9828 9828 9829 9830 9830
3457.7412 9827 9822 9818 9816 9816 9819 9823 9826 9828 9828 9828 9828 9830
3464.0088 9831 9833 9833 9832 9829 9826 9823 9821 9822 9824 9828 9831 9832
3470.2761 9830 9825 9818 9811 9808 9807 9809 9810 9810 9808 9804 9800 9798
3476.5437 9796 9797 9800 9804 9810 9816 9821 9824 9825 9822 9817 9810 9803
3482.8113 9798 9796 9795 9795 9794 9794 9793 9794 9795 9797 9799 9799 9800
3489.0789 9800 9800 9800 9800 9798 9795 9791 9787 9783 9781 9781 9783 9785
3495.3462 9788 9790 9792 9795 9797 9799 9802 9804 9807 9810 9814 9818 9822
3501.6138 9823 9821 9818 9813 9810 9808 9806 9803 9799 9793 9788 9785 9785
3507.8813 9789 9796 9804 9809 9810 9809 9806 9803 9801 9800 9801 9804 9806
3514.1489 9807 9807 9805 9801 9797 9792 9789 9788 9789 9790 9792 9794 9795
3520.4163 9796 9795 9794 9792 9791 9791 9792 9796 9802 9808 9813 9816 9816
3526.6838 9814 9811 9806 9802 9799 9797 9796 9796 9797 9796 9795 9793 9792
3532.9514 9792 9793 9795 9797 9799 9803 9807 9812 9814 9813 9807 9797 9786
3539.2190 9779 9777 9781 9790 9800 9809 9814 9817 9816 9815 9814 9814 9814
3545.4863 9815 9815 9815 9813 9810 9806 9804 9803 9804 9805 9806 9805 9802
3551.7539 9799 9796 9796 9798 9803 9808 9814 9817 9819 9818 9816 9813 9810
3558.0215 9807 9802 9795 9787 9780 9777 9778 9783 9791 9798 9803 9804 9803
3564.2891 9803 9805 9810 9817 9825 9830 9829 9825 9818 9810 9804 9800 9797
3570.5566 9795 9792 9789 9786 9784 9784 9786 9791 9796 9800 9802 9803 9803
3576.8240 9801 9799 9797 9795 9793 9791 9790 9790 9791 9793 9795 9795 9793
3583.0916 9788 9781 9775 9775 9781 9796 9815 9833 9843 9840 9829 9815 9802
3589.3591 9793 9787 9785 9787 9792 9800 9809 9817 9821 9821 9818 9814 9811
3595.6267 9808 9805 9802 9801 9801 9803 9807 9810 9811 9809 9805 9800 9798
3601.8940 9797 9797 9796 9794 9790 9786 9781 9777 9775 9775 9780 9789 9801
3608.1616 9812 9819 9819 9815 9809 9805 9803 9804 9808 9813 9815 9813 9807
3614.4292 9800 9794 9788 9785 9783 9785 9789 9796 9805 9813 9819 9821 9822
3620.6968 9822 9821 9818 9812 9805 9798 9794 9793 9797 9802 9808 9811 9812
3626.9641 9808 9799 9786 9772 9766 9771 9781 9791 9797 9801 9803 9803 9803
3633.2317 9802 9799 9796 9793 9791 9790 9790 9791 9791 9790 9790 9791 9793
3639.4993 9795 9798 9801 9802 9802 9800 9798 9797 9797 9798 9800 9803 9804
3645.7668 9802 9796 9788 9781 9781 9789 9799 9808 9809 9803 9796 9792 9792
3652.0342 9795 9799 9804 9812 9821 9830 9835 9828 9809 9785 9767 9761 9765
3658.3018 9775 9786 9796 9802 9804 9804 9802 9798 9794 9791 9788 9788 9788
3664.5693 9788 9788 9788 9788 9790 9793 9799 9806 9813 9818 9818 9810 9798
3670.8369 9786 9779 9777 9779 9785 9795 9809 9825 9836 9836 9825 9817 9814
3677.1042 9816 9817 9815 9810 9801 9792 9784 9781 9780 9780 9782 9784 9786
3683.3718 9789 9790 9790 9789 9789 9789 9791 9793 9795 9799 9804 9811 9818
3689.6394 9825 9830 9832 9829 9824 9818 9812 9807 9803 9798 9794 9788 9783
3695.9070 9778 9775 9775 9778 9784 9791 9799 9806 9809 9810 9807 9801 9796
3702.1743 9793 9793 9795 9797 9797 9795 9791 9786 9783 9784 9790 9799 9811
3708.4419 9821 9827 9829 9830 9834 9841 9850 9856 9854 9847 9837 9827 9818
3714.7095 9810 9804 9800 9800 9803 9805 9807 9805 9801 9797 9795 9795 9797
3720.9771 9798 9796 9792 9788 9790 9797 9807 9818 9827 9830 9828 9821 9812
3727.2444 9802 9793 9786 9780 9779 9781 9787 9797 9809 9818 9821 9819 9815
3733.5120 9811 9807 9803 9798 9793 9790 9792 9797 9805 9814 9822 9828 9831
3739.7795 9830 9825 9818 9811 9808 9811 9819 9832 9845 9844 9828 9811 9805
3746.0471 9808 9816 9825 9832 9835 9829 9816 9801 9794 9795 9803 9812 9816
3752.3145 9813 9806 9799 9796 9796 9798 9802 9805 9808 9809 9810 9810 9810
3758.5820 9811 9811 9810 9808 9807 9806 9806 9806 9806 9806 9806 9805 9802
3764.8496 9796 9788 9781 9777 9778 9783 9792 9802 9812 9816 9814 9809 9804
3771.1172 9803 9805 9806 9806 9804 9800 9797 9796 9797 9798 9799 9799 9799
3777.3845 9801 9803 9805 9805 9803 9799 9798 9799 9802 9806 9811 9815 9818
3783.6521 9821 9820 9816 9808 9801 9796 9794 9795 9798 9801 9802 9801 9799
3789.9197 9797 9795 9792 9791 9790 9790 9792 9796 9800 9804 9809 9813 9818
3796.1873 9823 9826 9825 9822 9816 9811 9806 9803 9805 9810 9818 9820 9814
3802.4546 9804 9793 9785 9781 9780 9783 9787 9791 9793 9793 9794 9797 9801
3808.7222 9804 9803 9800 9796 9792 9790 9792 9795 9799 9802 9804 9807 9813
3814.9897 9822 9833 9838 9834 9824 9814 9808 9805 9808 9816 9827 9837 9838
3821.2573 9831 9822 9815 9811 9808 9807 9805 9805 9806 9808 9812 9814 9812
3827.5247 9808 9803 9799 9796 9796 9797 9798 9798 9797 9795 9795 9795 9797
3833.7922 9800 9802 9804 9806 9808 9810 9814 9819 9825 9829 9829 9825 9818
3840.0598 9811 9805 9802 9803 9805 9807 9807 9804 9799 9795 9792 9793 9795
3846.3274 9799 9803 9806 9806 9804 9801 9799 9801 9807 9817 9828 9840 9849
3852.5947 9851 9846 9836 9829 9825 9822 9820 9817 9812 9807 9802 9800 9800
3858.8623 9802 9805 9809 9813 9815 9816 9815 9814 9815 9815 9813 9807 9798
3865.1299 9790 9787 9791 9799 9810 9822 9833 9839 9835 9817 9792 9775 9769
3871.3975 9772 9781 9793 9807 9819 9824 9821 9815 9808 9805 9804 9805 9807
3877.6648 9809 9811 9813 9813 9812 9811 9811 9813 9816 9819 9821 9823 9825
3883.9324 9829 9834 9838 9837 9828 9817 9807 9801 9799 9801 9804 9809 9814
3890.2000 9819 9823 9825 9824 9822 9819 9815 9812 9807 9802 9797 9794 9794
3896.4675 9797 9803 9812 9822 9828 9828 9821 9811 9802 9795 9793 9797 9805
3902.7349 9817 9827 9834 9834 9829 9821 9814 9811 9810 9811 9813 9814 9814
3909.0024 9813 9813 9812 9811 9809 9806 9802 9798 9793 9788 9784 9781 9781
3915.2700 9784 9792 9803 9814 9822 9825 9824 9820 9815 9810 9807 9806 9808
3921.5376 9810 9810 9808 9803 9797 9792 9789 9789 9790 9791 9792 9792 9793
3927.8049 9794 9797 9800 9804 9807 9809 9809 9809 9809 9810 9810 9809 9807
3934.0725 9803 9798 9794 9792 9793 9796 9800 9803 9806 9806 9805 9803 9800
3940.3401 9797 9795 9795 9796 9799 9801 9802 9803 9804 9806 9808 9810 9810
3946.6077 9807 9801 9794 9789 9786 9787 9792 9799 9806 9812 9815 9814 9810
3952.8750 9804 9799 9797 9798 9803 9809 9813 9814 9812 9807 9801 9796 9795
3959.1426 9799 9808 9819 9828 9832 9828 9819 9806 9796 9790 9787 9786 9785
3965.4102 9783 9782 9781 9782 9785 9790 9794 9797 9799 9798 9797 9797 9797
3971.6777 9799 9803 9806 9809 9810 9809 9805 9800 9794 9791 9792 9797 9804
3977.9451 9812 9818 9820 9818 9812 9804 9796 9789 9784 9783 9784 9789 9795
3984.2126 9800 9805 9807 9807 9806 9805 9805 9806 9809 9813 9815 9814 9810
3990.4802 9802 9794 9787 9786 9789 9797 9805 9810 9811 9807 9801 9796 9794
3996.7478 9793 9793 9793 9791 9790 9790 9794 9801
##END= 
