##TITLE= INCPOS2704
##JCAMP-DX= 4.24
##DATA TYPE= INFRARED SPECTRUM
##ORIGIN= JASCO
##OWNER= 
##DATE= 22/05/05
##TIME= 18:37:49
##SPECTROMETER/DATA SYSTEM= 
##RESOLUTION= 
##DELTAX=   0.48211674
##XUNITS= 1/CM
##YUNITS= TRANSMITTANCE
##XFACTOR= 1.00000
##YFACTOR= 0.0001
##FIRSTX=   599.7532
##LASTX=  4000.1226
##NPOINTS=     7054
##FIRSTY=      0.59399
##MAXY=      1.06568
##MINY=      0.27362
##XYDATA= (X++(Y..Y))
599.7532 5940 5908 5871 5839 5820 5816 5822 5834 5850 5871 5900 5935 5969 5997
606.5029 6016 6026 6031 6033 6032 6021 5998 5965 5926 5887 5849 5811 5769 5722
613.2525 5672 5621 5574 5534 5503 5481 5468 5461 5456 5449 5435 5413 5385 5351
620.0021 5316 5282 5251 5227 5208 5195 5185 5175 5164 5150 5131 5107 5079 5048
626.7518 5016 4984 4953 4924 4899 4878 4861 4844 4820 4778 4706 4598 4459 4313
633.5014 4195 4144 4191 4341 4572 4835 5072 5242 5324 5328 5276 5197 5117 5051
640.2510 5004 4969 4938 4901 4853 4797 4739 4687 4644 4608 4573 4534 4493 4457
647.0007 4438 4444 4479 4537 4607 4684 4767 4860 4965 5075 5177 5255 5302 5322
653.7503 5327 5329 5334 5342 5349 5350 5350 5352 5357 5362 5363 5355 5338 5314
660.4999 5286 5256 5225 5195 5168 5147 5128 5106 5075 5036 4995 4959 4933 4923
667.2496 4930 4947 4944 4906 4857 4813 4771 4724 4675 4629 4593 4574 4566 4560
673.9992 4544 4512 4468 4420 4375 4335 4298 4260 4218 4174 4131 4093 4060 4032
680.7488 4005 3979 3950 3919 3886 3848 3806 3758 3706 3652 3601 3558 3523 3499
687.4985 3481 3466 3449 3429 3406 3385 3372 3371 3387 3423 3481 3563 3667 3790
694.2481 3925 4066 4209 4352 4495 4639 4782 4927 5070 5210 5339 5455 5553 5638
700.9977 5718 5803 5898 5998 6093 6172 6229 6267 6292 6310 6323 6327 6317 6291
707.7474 6251 6203 6148 6090 6027 5958 5880 5789 5683 5557 5413 5250 5075 4897
714.4970 4727 4578 4461 4384 4348 4349 4374 4410 4445 4471 4482 4477 4457 4423
721.2466 4382 4342 4310 4291 4295 4327 4394 4494 4623 4766 4912 5048 5172 5287
727.9963 5399 5512 5621 5723 5811 5887 5959 6034 6120 6212 6305 6389 6460 6519
734.7459 6574 6632 6700 6778 6862 6945 7020 7082 7131 7172 7212 7256 7305 7356
741.4955 7404 7446 7477 7497 7508 7509 7501 7483 7458 7428 7397 7366 7335 7304
748.2452 7272 7239 7205 7170 7137 7105 7076 7053 7037 7032 7040 7060 7093 7138
754.9948 7195 7266 7349 7442 7537 7626 7694 7734 7742 7724 7689 7646 7599 7551
761.7444 7503 7457 7420 7394 7382 7380 7383 7383 7378 7370 7363 7361 7367 7380
768.4941 7399 7420 7438 7450 7457 7459 7459 7460 7464 7471 7477 7483 7485 7488
775.2437 7492 7500 7511 7525 7537 7544 7546 7544 7540 7538 7540 7544 7547 7548
781.9933 7545 7540 7536 7534 7534 7537 7540 7546 7555 7566 7576 7580 7576 7563
788.7430 7547 7533 7527 7531 7540 7550 7554 7551 7541 7528 7513 7498 7483 7467
795.4926 7448 7429 7412 7400 7394 7391 7388 7382 7368 7346 7319 7289 7258 7227
802.2422 7198 7166 7131 7089 7040 6986 6932 6884 6844 6812 6782 6749 6705 6649
808.9919 6581 6505 6426 6346 6266 6185 6098 6005 5906 5800 5689 5573 5450 5318
815.7415 5175 5019 4853 4677 4493 4304 4111 3918 3734 3568 3431 3333 3279 3267
822.4911 3292 3342 3408 3482 3559 3638 3718 3799 3881 3964 4050 4141 4240 4345
829.2408 4456 4567 4673 4772 4863 4946 5027 5108 5198 5300 5420 5557 5708 5864
835.9904 6017 6162 6300 6434 6570 6708 6847 6980 7103 7213 7312 7404 7494 7584
842.7401 7675 7766 7857 7948 8038 8126 8211 8288 8355 8412 8460 8503 8546 8590
849.4897 8636 8682 8724 8761 8793 8821 8846 8868 8887 8903 8915 8925 8934 8944
856.2393 8956 8968 8979 8988 8993 8997 9002 9008 9013 9016 9014 9005 8994 8984
862.9890 8979 8979 8980 8978 8969 8954 8939 8927 8920 8917 8914 8912 8910 8911
869.7386 8915 8921 8923 8920 8910 8895 8879 8865 8853 8842 8832 8820 8809 8800
876.4882 8793 8791 8790 8789 8785 8779 8770 8760 8750 8739 8727 8711 8694 8678
883.2379 8666 8660 8658 8658 8655 8648 8636 8622 8609 8599 8591 8587 8587 8588
889.9875 8589 8589 8585 8578 8569 8559 8550 8542 8536 8533 8530 8528 8525 8521
896.7371 8517 8513 8512 8514 8517 8519 8517 8509 8497 8484 8473 8465 8459 8454
903.4868 8447 8440 8435 8433 8435 8439 8440 8437 8429 8420 8410 8401 8392 8384
910.2364 8376 8369 8364 8363 8365 8369 8372 8373 8372 8370 8367 8365 8362 8358
916.9860 8353 8346 8340 8334 8329 8325 8322 8318 8313 8308 8306 8307 8313 8322
923.7357 8332 8338 8340 8336 8328 8318 8308 8299 8291 8281 8270 8258 8245 8231
930.4853 8217 8205 8194 8185 8178 8173 8168 8164 8158 8151 8145 8138 8133 8127
937.2349 8121 8113 8103 8089 8071 8050 8027 8002 7977 7952 7930 7911 7897 7887
943.9846 7883 7882 7881 7876 7864 7840 7802 7750 7689 7628 7580 7558 7570 7618
950.7342 7693 7781 7866 7936 7984 8013 8027 8031 8029 8021 8006 7984 7956 7920
957.4838 7879 7834 7788 7746 7715 7704 7715 7746 7790 7837 7875 7899 7909 7910
964.2335 7914 7930 7966 8020 8087 8157 8219 8269 8305 8327 8341 8347 8348 8345
970.9831 8339 8332 8327 8325 8324 8319 8308 8287 8258 8224 8187 8149 8112 8076
977.7327 8039 8003 7967 7930 7893 7855 7818 7783 7752 7726 7704 7684 7664 7643
984.4824 7622 7603 7584 7567 7550 7533 7513 7492 7472 7453 7438 7427 7419 7411
991.2320 7402 7393 7384 7376 7370 7365 7360 7353 7344 7332 7316 7296 7272 7245
997.9816 7218 7194 7174 7158 7143 7124 7098 7063 7018 6961 6890 6807 6716 6629
1004.7313 6558 6517 6513 6542 6598 6667 6740 6812 6882 6950 7016 7079 7136
1010.9988 7184 7221 7249 7268 7281 7291 7299 7309 7321 7337 7356 7374 7390
1017.2663 7402 7411 7417 7421 7425 7429 7434 7440 7447 7452 7453 7450 7442
1023.5338 7431 7418 7403 7387 7370 7351 7332 7310 7287 7260 7229 7193 7154
1029.8014 7115 7076 7041 7007 6974 6940 6904 6868 6833 6801 6773 6747 6724
1036.0688 6702 6680 6659 6640 6622 6605 6588 6570 6550 6529 6508 6488 6468
1042.3364 6449 6429 6408 6386 6364 6342 6322 6304 6287 6270 6252 6233 6213
1048.6039 6193 6172 6151 6128 6102 6073 6044 6015 5990 5967 5947 5926 5903
1054.8715 5877 5847 5815 5782 5750 5717 5683 5647 5608 5566 5525 5485 5447
1061.1389 5413 5379 5345 5306 5262 5211 5153 5089 5018 4939 4851 4753 4645
1067.4065 4528 4408 4291 4184 4095 4033 4003 4011 4060 4153 4287 4456 4651
1073.6740 4853 5046 5212 5339 5422 5466 5479 5471 5452 5426 5394 5356 5313
1079.9415 5264 5212 5161 5112 5066 5022 4979 4934 4889 4842 4795 4749 4704
1086.2090 4660 4617 4575 4533 4493 4453 4415 4376 4336 4294 4250 4206 4164
1092.4766 4125 4090 4057 4026 3994 3959 3922 3881 3838 3791 3741 3689 3634
1098.7440 3578 3523 3471 3422 3379 3343 3315 3297 3289 3291 3307 3336 3381
1105.0116 3442 3520 3614 3725 3852 3993 4145 4305 4470 4636 4802 4968 5133
1111.2791 5296 5454 5605 5746 5877 5995 6100 6190 6263 6318 6355 6374 6379
1117.5466 6372 6356 6331 6298 6256 6206 6148 6083 6013 5940 5865 5787 5706
1123.8141 5621 5533 5442 5349 5254 5157 5058 4959 4858 4756 4653 4548 4442
1130.0817 4335 4228 4121 4016 3913 3813 3718 3630 3550 3479 3414 3355 3302
1136.3491 3253 3210 3172 3139 3111 3088 3069 3057 3052 3054 3065 3082 3106
1142.6167 3137 3178 3230 3299 3388 3504 3655 3845 4078 4353 4663 5001 5357
1148.8842 5718 6076 6420 6745 7049 7331 7593 7835 8059 8266 8458 8637 8802
1155.1517 8954 9091 9210 9311 9394 9461 9516 9563 9604 9642 9674 9702 9723
1161.4192 9739 9750 9757 9761 9764 9765 9765 9764 9762 9760 9758 9756 9753
1167.6868 9749 9743 9736 9727 9719 9710 9700 9687 9671 9652 9631 9606 9578
1173.9542 9543 9499 9444 9372 9277 9152 8997 8824 8659 8541 8504 8570 8733
1180.2218 8961 9210 9436 9611 9726 9788 9810 9806 9786 9759 9732 9709 9692
1186.4893 9683 9679 9678 9677 9674 9670 9665 9660 9653 9645 9636 9624 9611
1192.7568 9597 9582 9567 9551 9534 9515 9496 9478 9463 9451 9440 9429 9417
1199.0243 9404 9389 9375 9362 9351 9340 9330 9318 9305 9291 9278 9266 9256
1205.2919 9248 9240 9232 9223 9213 9203 9194 9188 9183 9179 9173 9163 9150
1211.5593 9135 9118 9100 9082 9063 9043 9023 9001 8978 8954 8931 8909 8889
1217.8269 8872 8858 8849 8843 8839 8837 8835 8833 8831 8827 8822 8814 8803
1224.0944 8791 8777 8764 8750 8737 8723 8706 8688 8667 8646 8624 8603 8583
1230.3619 8563 8544 8525 8507 8490 8473 8455 8436 8415 8391 8365 8338 8309
1236.6294 8280 8251 8219 8186 8150 8111 8067 8019 7967 7911 7852 7789 7725
1242.8970 7659 7592 7524 7456 7388 7320 7253 7188 7125 7063 7003 6943 6882
1249.1644 6820 6757 6694 6632 6572 6512 6452 6391 6328 6262 6194 6125 6053
1255.4320 5977 5898 5814 5726 5634 5539 5439 5336 5228 5115 4999 4883 4770
1261.6995 4662 4560 4467 4382 4309 4248 4202 4173 4158 4154 4152 4140 4108
1267.9670 4048 3959 3845 3715 3577 3438 3302 3174 3055 2949 2860 2793 2750
1274.2345 2736 2754 2809 2905 3045 3231 3463 3736 4043 4374 4717 5062 5399
1280.5021 5718 6013 6281 6520 6729 6910 7064 7191 7293 7371 7430 7471 7500
1286.7695 7517 7526 7526 7518 7502 7477 7446 7407 7365 7320 7274 7230 7189
1293.0371 7153 7126 7111 7109 7123 7150 7188 7234 7286 7342 7397 7451 7498
1299.3046 7534 7555 7559 7546 7521 7488 7457 7434 7428 7441 7475 7524 7583
1305.5721 7646 7710 7773 7839 7913 7997 8093 8199 8312 8427 8542 8655 8764
1311.8396 8869 8969 9062 9147 9223 9289 9348 9400 9447 9489 9527 9559 9587
1318.1072 9611 9631 9649 9667 9683 9700 9715 9727 9737 9743 9745 9746 9743
1324.3746 9738 9730 9719 9705 9688 9668 9644 9616 9585 9553 9519 9487 9456
1330.6422 9425 9393 9361 9327 9293 9259 9227 9195 9164 9134 9103 9073 9046
1336.9097 9024 9011 9007 9014 9033 9067 9113 9168 9225 9281 9334 9385 9433
1343.1772 9479 9521 9558 9590 9617 9641 9665 9687 9707 9726 9742 9754 9764
1349.4447 9772 9781 9790 9801 9813 9825 9837 9849 9861 9874 9887 9899 9908
1355.7123 9914 9915 9912 9904 9892 9880 9866 9850 9830 9807 9779 9747 9711
1361.9797 9671 9628 9584 9545 9512 9484 9459 9435 9411 9387 9364 9345 9330
1368.2473 9318 9309 9301 9295 9289 9284 9281 9281 9284 9289 9294 9299 9302
1374.5148 9303 9305 9307 9311 9315 9318 9321 9323 9325 9328 9333 9337 9341
1380.7823 9344 9345 9344 9344 9344 9345 9346 9347 9347 9346 9345 9346 9351
1387.0498 9358 9366 9371 9373 9373 9374 9376 9380 9384 9388 9391 9394 9397
1393.3174 9402 9408 9416 9424 9429 9433 9436 9439 9442 9445 9446 9444 9439
1399.5848 9433 9426 9418 9411 9401 9389 9376 9361 9344 9325 9304 9281 9259
1405.8524 9238 9219 9202 9183 9164 9144 9123 9103 9082 9062 9042 9023 9006
1412.1199 8991 8978 8967 8955 8943 8930 8915 8900 8884 8867 8851 8835 8820
1418.3875 8803 8783 8761 8739 8718 8699 8681 8663 8643 8620 8591 8557 8519
1424.6549 8480 8441 8401 8357 8307 8251 8191 8128 8057 7977 7886 7793 7707
1430.9225 7636 7577 7526 7482 7450 7434 7435 7450 7478 7524 7607 7749 7935
1437.1899 8110 8239 8334 8418 8504 8593 8682 8763 8831 8888 8934 8972 9003
1443.4575 9027 9046 9061 9073 9081 9086 9090 9091 9092 9093 9094 9094 9095
1449.7250 9096 9097 9100 9103 9106 9107 9105 9099 9091 9080 9066 9050 9031
1455.9926 9011 8995 8986 8981 8972 8955 8934 8912 8891 8870 8851 8833 8817
1462.2600 8803 8792 8784 8777 8771 8763 8754 8745 8737 8730 8722 8715 8707
1468.5276 8699 8690 8680 8668 8655 8641 8629 8619 8611 8602 8589 8575 8559
1474.7950 8543 8525 8502 8473 8441 8408 8375 8341 8305 8267 8224 8176 8121
1481.0626 8062 7999 7936 7871 7803 7729 7648 7562 7473 7381 7282 7171 7048
1487.3301 6926 6817 6724 6633 6521 6371 6195 6036 5916 5833 5773 5731 5703
1493.5977 5692 5698 5727 5789 5891 6024 6156 6260 6339 6414 6503 6608 6718
1499.8651 6820 6917 7022 7146 7291 7445 7589 7713 7817 7906 7993 8088 8211
1506.1327 8378 8551 8657 8704 8728 8747 8763 8777 8789 8797 8802 8804 8803
1512.4001 8800 8794 8788 8780 8773 8766 8760 8753 8743 8729 8714 8701 8692
1518.6677 8684 8676 8668 8658 8646 8634 8627 8623 8621 8619 8618 8616 8614
1524.9352 8608 8599 8587 8575 8566 8560 8557 8555 8553 8550 8546 8543 8540
1531.2028 8539 8540 8545 8556 8574 8594 8609 8617 8620 8620 8619 8618 8617
1537.4702 8614 8609 8602 8598 8604 8622 8638 8645 8645 8640 8634 8628 8623
1543.7378 8617 8608 8593 8572 8545 8517 8488 8459 8427 8394 8359 8322 8283
1550.0052 8241 8195 8150 8105 8063 8021 7978 7927 7865 7796 7734 7683 7641
1556.2728 7601 7559 7507 7437 7340 7244 7216 7216 7195 7159 7116 7069 7020
1562.5403 6969 6916 6861 6805 6747 6691 6638 6588 6541 6496 6452 6408 6360
1568.8079 6300 6224 6141 6066 5999 5933 5860 5776 5681 5583 5488 5399 5313
1575.0753 5215 5092 4958 4863 4829 4833 4848 4863 4872 4869 4851 4816 4763
1581.3429 4699 4629 4556 4485 4416 4350 4287 4228 4174 4129 4096 4080 4086
1587.6105 4116 4173 4257 4368 4501 4650 4810 4973 5135 5291 5443 5591 5740
1593.8779 5891 6045 6197 6346 6491 6632 6773 6918 7065 7216 7368 7521 7674
1600.1455 7824 7967 8100 8220 8327 8422 8504 8574 8630 8672 8702 8722 8731
1606.4130 8733 8727 8716 8699 8675 8644 8605 8558 8507 8455 8403 8349 8291
1612.6805 8228 8162 8096 8034 7976 7919 7852 7759 7638 7516 7423 7355 7294
1618.9480 7231 7161 7086 7013 6947 6889 6837 6784 6729 6677 6637 6614 6602
1625.2156 6595 6592 6596 6612 6647 6704 6777 6854 6927 6998 7070 7146 7231
1631.4830 7320 7408 7488 7557 7618 7680 7757 7872 8029 8186 8300 8380 8448
1637.7506 8515 8583 8650 8716 8780 8844 8911 8979 9046 9112 9174 9231 9284
1644.0181 9334 9383 9434 9493 9562 9641 9719 9788 9845 9894 9936 9971 10002
1650.2856 10031 10061 10095 10135 10183 10230 10244 10233 10234 10246 10261
1655.5889 10274 10284 10291 10295 10297 10298 10297 10295 10291 10287 10283
1660.8922 10279 10274 10266 10254 10241 10231 10224 10219 10214 10208 10201
1666.1954 10193 10187 10183 10179 10170 10154 10128 10101 10078 10058 10038
1671.4988 10016 9996 9980 9969 9961 9952 9936 9912 9886 9869 9866 9870 9877
1677.7662 9885 9893 9905 9922 9948 9982 10021 10058 10093 10124 10153 10185
1683.5516 10229 10295 10365 10415 10451 10483 10515 10545 10574 10601 10623
1688.8550 10639 10650 10655 10657 10655 10652 10646 10640 10635 10631 10628
1694.1582 10625 10617 10596 10553 10497 10453 10428 10414 10407 10402 10398
1699.4615 10382 10331 10248 10185 10151 10130 10112 10090 10064 10034 10002
1704.7648 9970 9940 9912 9884 9857 9833 9813 9796 9780 9762 9740 9713 9683
1711.0323 9651 9621 9594 9570 9547 9526 9502 9474 9444 9416 9392 9374 9360
1717.2998 9347 9334 9322 9312 9304 9297 9289 9282 9274 9266 9258 9252 9248
1723.5674 9245 9244 9243 9241 9239 9235 9231 9226 9221 9215 9210 9206 9202
1729.8348 9196 9187 9174 9159 9143 9127 9111 9094 9077 9066 9060 9055 9049
1736.1024 9041 9031 9022 9012 9004 8996 8988 8978 8966 8953 8943 8935 8928
1742.3699 8923 8918 8913 8907 8900 8892 8883 8873 8864 8855 8849 8843 8837
1748.6375 8832 8826 8822 8818 8815 8812 8807 8800 8793 8785 8778 8771 8765
1754.9049 8759 8753 8749 8746 8743 8741 8740 8737 8734 8729 8723 8718 8714
1761.1725 8713 8715 8716 8715 8711 8707 8703 8700 8698 8696 8695 8693 8692
1767.4399 8694 8698 8702 8703 8700 8694 8687 8680 8678 8684 8693 8698 8696
1773.7075 8689 8682 8674 8669 8666 8665 8665 8665 8665 8665 8665 8666 8666
1779.9750 8666 8666 8667 8667 8668 8667 8665 8663 8661 8659 8659 8659 8659
1786.2426 8658 8655 8652 8648 8644 8641 8638 8637 8636 8636 8637 8639 8641
1792.5100 8644 8644 8643 8641 8638 8636 8636 8638 8640 8641 8641 8639 8638
1798.7776 8638 8639 8640 8640 8639 8638 8638 8640 8641 8642 8640 8636 8632
1805.0450 8627 8623 8620 8619 8619 8620 8622 8623 8623 8623 8621 8618 8615
1811.3126 8612 8610 8608 8607 8605 8603 8602 8602 8604 8607 8610 8612 8612
1817.5801 8608 8603 8598 8593 8589 8587 8585 8583 8581 8578 8575 8571 8566
1823.8477 8561 8558 8559 8563 8568 8573 8575 8575 8572 8569 8566 8564 8566
1830.1151 8568 8570 8569 8566 8562 8558 8555 8554 8554 8556 8557 8556 8553
1836.3827 8547 8540 8532 8526 8522 8521 8522 8525 8528 8528 8526 8521 8514
1842.6501 8508 8508 8517 8531 8543 8545 8539 8530 8525 8525 8534 8546 8556
1848.9177 8560 8557 8550 8544 8539 8539 8541 8546 8550 8553 8554 8553 8551
1855.1852 8551 8552 8555 8558 8560 8559 8557 8556 8558 8562 8567 8570 8569
1861.4528 8564 8558 8553 8550 8550 8549 8547 8544 8540 8539 8542 8551 8564
1867.7202 8576 8584 8583 8575 8561 8548 8535 8524 8514 8505 8498 8495 8496
1873.9878 8499 8503 8506 8506 8504 8502 8503 8506 8511 8514 8514 8509 8501
1880.2552 8494 8490 8490 8492 8493 8492 8487 8479 8470 8461 8453 8446 8441
1886.5228 8437 8435 8433 8432 8430 8429 8426 8421 8413 8402 8390 8377 8366
1892.7903 8359 8357 8361 8369 8378 8385 8388 8384 8373 8357 8337 8316 8295
1899.0579 8273 8250 8226 8202 8182 8168 8161 8161 8165 8172 8180 8189 8201
1905.3253 8215 8233 8253 8274 8292 8307 8318 8329 8341 8356 8371 8378 8374
1911.5929 8358 8337 8319 8311 8315 8330 8346 8357 8361 8361 8364 8377 8404
1917.8604 8439 8472 8492 8497 8492 8482 8474 8468 8465 8465 8467 8470 8475
1924.1279 8480 8485 8491 8496 8501 8504 8504 8501 8494 8485 8477 8469 8461
1930.3954 8451 8442 8438 8441 8455 8477 8501 8520 8529 8530 8525 8518 8513
1936.6630 8509 8505 8499 8489 8478 8467 8459 8455 8458 8465 8475 8482 8482
1942.9304 8469 8447 8422 8401 8393 8401 8425 8458 8489 8509 8516 8514 8509
1949.1980 8508 8513 8524 8536 8546 8548 8540 8522 8493 8459 8425 8400 8394
1955.4655 8411 8452 8506 8561 8604 8625 8624 8609 8588 8569 8553 8538 8519
1961.7330 8495 8467 8442 8428 8432 8454 8486 8518 8540 8544 8530 8505 8481
1968.0005 8467 8467 8480 8499 8520 8539 8551 8558 8562 8563 8565 8569 8573
1974.2681 8576 8576 8573 8566 8557 8550 8544 8539 8528 8506 8474 8437 8405
1980.5355 8384 8379 8387 8404 8421 8435 8441 8444 8448 8458 8477 8502 8526
1986.8031 8538 8535 8516 8487 8457 8432 8412 8395 8382 8372 8367 8362 8353
1993.0706 8336 8311 8287 8274 8283 8317 8373 8436 8491 8528 8542 8539 8527
1999.3381 8517 8512 8512 8515 8520 8524 8527 8526 8519 8504 8484 8463 8446
2005.6056 8436 8436 8442 8453 8461 8464 8456 8436 8409 8383 8371 8382 8417
2011.8732 8467 8518 8552 8556 8529 8480 8426 8379 8351 8342 8350 8367 8392
2018.1406 8428 8476 8531 8575 8588 8559 8492 8409 8340 8307 8319 8364 8422
2024.4082 8475 8516 8543 8563 8573 8565 8533 8478 8416 8370 8360 8391 8449
2030.6757 8505 8538 8536 8509 8479 8464 8468 8485 8497 8494 8473 8442 8415
2036.9432 8401 8405 8422 8441 8452 8453 8450 8452 8470 8502 8535 8552 8543
2043.2107 8507 8455 8405 8369 8352 8355 8370 8394 8422 8448 8467 8475 8470
2049.4783 8455 8437 8422 8412 8407 8407 8411 8419 8431 8445 8459 8471 8482
2055.7458 8490 8498 8503 8503 8496 8483 8465 8445 8425 8408 8394 8382 8372
2062.0132 8365 8360 8360 8366 8381 8404 8430 8452 8464 8465 8456 8445 8435
2068.2808 8429 8424 8419 8410 8401 8393 8392 8396 8404 8409 8406 8397 8383
2074.5483 8371 8366 8368 8376 8385 8391 8391 8387 8380 8373 8368 8365 8362
2080.8159 8360 8358 8357 8361 8368 8378 8389 8395 8397 8395 8391 8390 8391
2087.0833 8395 8399 8402 8401 8396 8387 8375 8361 8349 8342 8344 8351 8363
2093.3508 8374 8381 8384 8385 8385 8387 8391 8397 8404 8412 8418 8420 8415
2099.6184 8405 8393 8383 8380 8382 8384 8381 8372 8362 8354 8352 8357 8364
2105.8860 8371 8374 8373 8371 8369 8369 8370 8370 8367 8359 8349 8339 8332
2112.1533 8329 8331 8336 8343 8349 8353 8354 8351 8345 8340 8343 8355 8376
2118.4209 8400 8418 8424 8418 8403 8384 8366 8349 8332 8317 8306 8303 8307
2124.6885 8317 8330 8343 8355 8366 8376 8386 8392 8395 8394 8390 8386 8383
2130.9561 8381 8383 8388 8397 8406 8412 8412 8405 8396 8391 8394 8405 8420
2137.2234 8431 8435 8432 8428 8429 8438 8452 8465 8471 8467 8454 8441 8433
2143.4910 8436 8448 8465 8481 8491 8493 8490 8480 8463 8439 8411 8383 8358
2149.7585 8340 8332 8338 8362 8402 8453 8502 8534 8541 8529 8518 8526 8560
2156.0261 8610 8648 8651 8611 8545 8484 8457 8471 8512 8552 8574 8575 8563
2162.2935 8551 8544 8542 8542 8546 8554 8569 8584 8591 8578 8541 8486 8424
2168.5610 8370 8329 8302 8290 8292 8311 8345 8389 8430 8455 8460 8448 8431
2174.8286 8418 8413 8413 8414 8418 8431 8459 8502 8551 8592 8611 8605 8577
2181.0962 8542 8510 8490 8482 8482 8482 8477 8467 8455 8444 8438 8437 8436
2187.3635 8435 8431 8427 8425 8425 8424 8420 8410 8397 8386 8380 8381 8385
2193.6311 8388 8388 8387 8389 8396 8408 8419 8424 8420 8409 8396 8387 8387
2199.8987 8396 8409 8421 8425 8419 8402 8382 8367 8366 8379 8400 8416 8416
2206.1663 8393 8352 8309 8280 8276 8299 8341 8386 8419 8431 8422 8401 8376
2212.4336 8356 8343 8337 8333 8328 8323 8318 8316 8318 8322 8327 8329 8328
2218.7012 8325 8322 8322 8326 8333 8339 8341 8339 8335 8333 8335 8340 8343
2224.9688 8340 8327 8306 8283 8266 8262 8271 8287 8301 8305 8298 8286 8278
2231.2363 8280 8289 8299 8300 8288 8267 8247 8237 8242 8259 8280 8294 8297
2237.5037 8290 8278 8265 8255 8248 8244 8242 8243 8247 8253 8256 8255 8249
2243.7712 8240 8233 8233 8240 8250 8260 8265 8264 8260 8256 8256 8262 8272
2250.0388 8285 8297 8306 8310 8312 8310 8306 8301 8295 8289 8285 8283 8284
2256.3064 8287 8293 8298 8303 8305 8306 8307 8309 8313 8317 8321 8323 8325
2262.5737 8326 8330 8336 8344 8350 8353 8351 8341 8325 8304 8281 8263 8255
2268.8413 8260 8280 8306 8332 8350 8355 8351 8342 8332 8324 8319 8312 8303
2275.1089 8291 8280 8274 8274 8281 8291 8300 8303 8300 8292 8283 8278 8277
2281.3765 8279 8280 8279 8273 8265 8257 8252 8252 8255 8260 8263 8262 8257
2287.6438 8249 8242 8239 8241 8248 8255 8262 8264 8263 8259 8255 8252 8250
2293.9114 8248 8245 8243 8241 8241 8241 8239 8236 8229 8220 8210 8204 8202
2300.1790 8207 8215 8225 8233 8235 8231 8223 8214 8207 8204 8206 8212 8220
2306.4465 8227 8231 8230 8224 8216 8207 8202 8199 8200 8202 8204 8207 8210
2312.7139 8213 8216 8217 8215 8210 8203 8195 8190 8187 8188 8189 8192 8194
2318.9814 8196 8197 8197 8195 8192 8187 8183 8182 8183 8186 8190 8191 8190
2325.2490 8187 8183 8181 8183 8191 8202 8215 8227 8235 8238 8238 8238 8237
2331.5166 8238 8239 8240 8241 8242 8242 8240 8234 8226 8219 8216 8219 8228
2337.7839 8236 8240 8236 8225 8209 8191 8174 8160 8151 8146 8145 8150 8158
2344.0515 8169 8183 8197 8210 8218 8220 8216 8209 8201 8196 8192 8191 8191
2350.3191 8194 8198 8204 8210 8214 8213 8205 8192 8176 8165 8163 8174 8194
2356.5867 8218 8237 8250 8256 8259 8261 8261 8257 8246 8232 8217 8205 8195
2362.8540 8187 8176 8163 8152 8144 8143 8147 8154 8163 8173 8183 8194 8202
2369.1216 8205 8203 8200 8199 8202 8210 8221 8233 8242 8248 8250 8247 8240
2375.3892 8228 8214 8199 8186 8177 8172 8172 8175 8180 8186 8191 8196 8199
2381.6567 8201 8202 8202 8203 8204 8206 8210 8214 8218 8220 8220 8218 8214
2387.9241 8211 8209 8210 8211 8211 8209 8206 8203 8201 8201 8202 8203 8202
2394.1917 8199 8195 8191 8188 8186 8185 8183 8181 8179 8180 8183 8187 8191
2400.4592 8192 8190 8186 8183 8181 8182 8183 8184 8183 8181 8177 8174 8173
2406.7268 8173 8174 8176 8177 8177 8175 8172 8170 8169 8169 8170 8171 8171
2412.9941 8171 8169 8168 8165 8163 8160 8158 8157 8156 8156 8155 8153 8151
2419.2617 8148 8147 8148 8149 8150 8150 8151 8154 8160 8168 8176 8182 8184
2425.5293 8183 8180 8179 8180 8183 8186 8187 8186 8183 8182 8184 8191 8200
2431.7969 8210 8217 8218 8215 8208 8202 8198 8199 8202 8206 8207 8206 8203
2438.0642 8201 8200 8202 8208 8214 8220 8225 8229 8232 8235 8237 8239 8240
2444.3318 8239 8236 8232 8228 8226 8224 8225 8228 8231 8232 8232 8229 8226
2450.5994 8223 8222 8222 8222 8219 8215 8209 8205 8204 8206 8211 8216 8221
2456.8669 8224 8226 8226 8225 8223 8220 8218 8215 8213 8212 8212 8213 8214
2463.1343 8215 8216 8215 8214 8213 8214 8218 8224 8229 8232 8232 8229 8223
2469.4019 8218 8215 8213 8213 8213 8213 8212 8210 8209 8208 8209 8212 8216
2475.6694 8220 8223 8226 8229 8230 8231 8231 8229 8227 8226 8226 8228 8231
2481.9370 8233 8234 8232 8229 8226 8226 8228 8232 8235 8235 8233 8229 8226
2488.2043 8224 8224 8227 8232 8237 8243 8248 8251 8251 8248 8242 8234 8224
2494.4719 8215 8208 8204 8204 8207 8212 8216 8217 8214 8208 8203 8200 8202
2500.7395 8208 8216 8221 8222 8219 8212 8205 8200 8199 8202 8206 8209 8210
2507.0071 8209 8208 8206 8205 8206 8209 8213 8218 8224 8230 8235 8239 8242
2513.2744 8242 8241 8237 8231 8224 8217 8214 8214 8219 8226 8233 8239 8240
2519.5420 8237 8232 8228 8226 8226 8229 8231 8232 8231 8228 8225 8224 8225
2525.8096 8229 8234 8240 8244 8247 8246 8243 8239 8233 8229 8226 8226 8227
2532.0771 8231 8236 8241 8245 8247 8245 8240 8232 8226 8223 8224 8226 8228
2538.3445 8229 8227 8224 8221 8222 8227 8235 8245 8252 8254 8251 8245 8238
2544.6121 8232 8229 8228 8227 8226 8225 8227 8229 8232 8233 8232 8229 8225
2550.8796 8220 8215 8208 8200 8191 8183 8179 8180 8185 8192 8200 8203 8202
2557.1472 8196 8187 8178 8172 8170 8173 8177 8181 8183 8184 8184 8184 8185
2563.4146 8187 8189 8190 8190 8187 8184 8180 8177 8175 8174 8173 8172 8171
2569.6821 8170 8170 8172 8174 8175 8174 8171 8165 8161 8158 8159 8163 8166
2575.9497 8167 8165 8160 8152 8146 8142 8142 8146 8151 8156 8158 8157 8154
2582.2173 8150 8147 8145 8145 8146 8145 8142 8138 8134 8130 8128 8126 8125
2588.4849 8122 8118 8114 8113 8114 8119 8124 8127 8125 8118 8109 8099 8091
2594.7522 8086 8083 8081 8080 8078 8077 8077 8078 8080 8085 8090 8096 8099
2601.0198 8100 8099 8096 8094 8094 8095 8097 8099 8101 8102 8104 8107 8110
2607.2874 8112 8114 8114 8113 8113 8113 8115 8116 8118 8119 8121 8122 8124
2613.5549 8126 8129 8132 8134 8134 8131 8127 8122 8118 8116 8116 8116 8117
2619.8223 8116 8115 8114 8113 8113 8112 8111 8109 8106 8103 8099 8095 8091
2626.0898 8088 8086 8085 8083 8081 8079 8075 8071 8067 8064 8062 8060 8058
2632.3574 8056 8053 8050 8048 8048 8050 8056 8062 8068 8072 8074 8076 8077
2638.6250 8079 8083 8086 8090 8093 8095 8099 8103 8107 8110 8111 8109 8106
2644.8923 8103 8101 8100 8101 8102 8104 8107 8109 8110 8112 8113 8112 8111
2651.1599 8108 8105 8101 8098 8096 8095 8096 8096 8095 8093 8089 8085 8081
2657.4275 8079 8078 8078 8079 8078 8077 8074 8071 8067 8064 8062 8060 8059
2663.6951 8059 8059 8059 8060 8060 8060 8059 8060 8061 8063 8066 8068 8071
2669.9624 8074 8078 8082 8087 8090 8093 8094 8094 8092 8088 8083 8079 8076
2676.2300 8076 8079 8085 8092 8097 8101 8102 8102 8103 8104 8106 8109 8111
2682.4976 8111 8110 8108 8105 8103 8103 8103 8104 8105 8105 8103 8101 8098
2688.7651 8095 8093 8092 8093 8094 8096 8097 8097 8096 8095 8094 8093 8093
2695.0325 8094 8095 8096 8098 8099 8099 8100 8099 8100 8100 8102 8103 8105
2701.3000 8106 8107 8108 8109 8110 8112 8115 8118 8121 8122 8122 8121 8119
2707.5676 8118 8118 8119 8121 8125 8129 8133 8135 8137 8137 8137 8137 8137
2713.8352 8138 8139 8140 8140 8139 8137 8136 8134 8133 8132 8133 8134 8136
2720.1025 8139 8141 8143 8144 8144 8143 8141 8139 8136 8134 8133 8133 8135
2726.3701 8138 8140 8142 8143 8144 8145 8146 8148 8148 8148 8146 8144 8142
2732.6377 8140 8140 8141 8143 8144 8146 8148 8151 8153 8155 8157 8159 8160
2738.9053 8160 8160 8159 8157 8156 8155 8155 8158 8162 8166 8169 8170 8170
2745.1726 8169 8168 8168 8169 8169 8169 8168 8167 8165 8163 8162 8161 8162
2751.4402 8163 8164 8167 8169 8170 8170 8168 8165 8162 8159 8156 8155 8155
2757.7078 8156 8157 8157 8157 8155 8154 8153 8153 8154 8155 8155 8154 8152
2763.9753 8150 8148 8147 8146 8146 8147 8149 8150 8151 8151 8151 8152 8152
2770.2427 8152 8151 8149 8148 8146 8146 8147 8150 8153 8156 8159 8160 8161
2776.5103 8161 8160 8159 8158 8157 8156 8158 8162 8167 8172 8174 8175 8174
2782.7778 8171 8169 8169 8169 8169 8170 8171 8172 8173 8175 8176 8177 8178
2789.0454 8179 8179 8180 8180 8179 8178 8176 8174 8174 8174 8176 8178 8179
2795.3127 8179 8177 8177 8178 8181 8185 8188 8189 8187 8183 8181 8180 8182
2801.5803 8184 8185 8185 8183 8180 8176 8173 8171 8171 8172 8174 8176 8178
2807.8479 8178 8177 8176 8175 8176 8179 8183 8187 8189 8190 8189 8187 8185
2814.1155 8184 8183 8181 8179 8175 8171 8167 8164 8163 8162 8163 8165 8166
2820.3828 8168 8170 8173 8176 8178 8180 8181 8180 8177 8174 8171 8169 8170
2826.6504 8171 8172 8172 8171 8171 8172 8174 8178 8182 8185 8187 8187 8186
2832.9180 8184 8182 8183 8185 8188 8192 8194 8195 8195 8195 8196 8197 8198
2839.1855 8199 8200 8201 8201 8202 8203 8203 8203 8203 8203 8204 8205 8207
2845.4529 8209 8210 8210 8209 8208 8208 8209 8210 8212 8213 8214 8214 8213
2851.7205 8213 8212 8212 8212 8213 8215 8217 8220 8222 8224 8225 8225 8224
2857.9880 8222 8220 8217 8216 8215 8215 8216 8217 8219 8221 8223 8224 8225
2864.2556 8224 8222 8221 8220 8222 8225 8228 8229 8230 8229 8228 8228 8228
2870.5229 8229 8229 8229 8229 8229 8230 8232 8233 8233 8232 8231 8230 8229
2876.7905 8228 8228 8227 8227 8227 8226 8225 8224 8222 8220 8219 8217 8216
2883.0581 8215 8215 8215 8215 8214 8214 8213 8212 8212 8214 8216 8219 8221
2889.3257 8220 8218 8214 8210 8206 8204 8202 8200 8199 8197 8197 8197 8198
2895.5930 8200 8201 8201 8201 8200 8199 8199 8200 8200 8200 8198 8196 8194
2901.8606 8192 8192 8193 8195 8197 8197 8197 8197 8197 8199 8202 8204 8206
2908.1282 8207 8207 8207 8208 8210 8214 8218 8222 8227 8230 8231 8230 8228
2914.3958 8225 8224 8225 8228 8231 8234 8235 8235 8234 8234 8235 8236 8238
2920.6631 8241 8243 8245 8246 8245 8243 8241 8238 8237 8238 8239 8240 8241
2926.9307 8241 8241 8241 8242 8245 8249 8255 8260 8264 8265 8265 8263 8261
2933.1982 8260 8262 8266 8270 8274 8275 8273 8270 8266 8263 8263 8265 8267
2939.4658 8269 8271 8271 8272 8273 8274 8277 8279 8282 8285 8287 8289 8289
2945.7332 8288 8288 8289 8290 8294 8297 8301 8304 8306 8306 8305 8303 8301
2952.0007 8299 8297 8295 8293 8292 8293 8296 8302 8308 8312 8313 8311 8306
2958.2683 8300 8295 8292 8291 8291 8291 8289 8286 8281 8275 8269 8263 8258
2964.5359 8254 8250 8246 8241 8234 8227 8220 8214 8210 8206 8204 8201 8198
2970.8032 8195 8192 8190 8187 8184 8181 8177 8172 8169 8166 8165 8164 8164
2977.0708 8162 8160 8156 8152 8148 8144 8142 8140 8140 8139 8139 8137 8135
2983.3384 8132 8130 8128 8129 8131 8133 8135 8135 8132 8128 8124 8123 8125
2989.6060 8129 8133 8135 8133 8127 8118 8110 8103 8099 8099 8100 8102 8103
2995.8733 8103 8102 8102 8103 8104 8105 8104 8102 8100 8098 8098 8099 8099
3002.1409 8098 8096 8092 8088 8085 8085 8087 8091 8095 8098 8099 8100 8099
3008.4084 8099 8099 8100 8103 8105 8106 8106 8102 8097 8091 8087 8087 8090
3014.6760 8094 8098 8099 8098 8095 8092 8091 8092 8093 8094 8092 8089 8084
3020.9434 8078 8071 8064 8057 8052 8048 8047 8047 8047 8048 8047 8044 8040
3027.2109 8034 8028 8021 8015 8008 8002 7995 7988 7982 7977 7972 7968 7965
3033.4785 7960 7954 7946 7936 7925 7915 7905 7899 7895 7893 7895 7898 7904
3039.7461 7911 7920 7928 7936 7941 7945 7950 7955 7963 7971 7978 7983 7985
3046.0134 7984 7981 7977 7974 7970 7967 7963 7958 7953 7948 7942 7935 7929
3052.2810 7923 7920 7920 7923 7927 7931 7935 7938 7939 7940 7940 7940 7940
3058.5486 7941 7941 7942 7942 7943 7943 7942 7940 7936 7932 7927 7921 7914
3064.8162 7908 7900 7893 7885 7878 7873 7869 7866 7864 7864 7866 7872 7880
3071.0835 7892 7907 7923 7940 7956 7972 7987 7999 8010 8018 8024 8029 8035
3077.3511 8041 8048 8055 8061 8066 8069 8070 8070 8069 8067 8065 8063 8060
3083.6187 8057 8055 8052 8050 8048 8047 8047 8047 8046 8043 8040 8036 8035
3089.8862 8036 8040 8045 8050 8053 8054 8055 8056 8057 8057 8057 8057 8058
3096.1536 8061 8065 8071 8077 8082 8085 8086 8086 8088 8090 8092 8094 8096
3102.4211 8097 8098 8101 8104 8106 8109 8111 8114 8117 8121 8125 8127 8128
3108.6887 8128 8129 8131 8135 8139 8142 8143 8143 8141 8139 8135 8132 8129
3114.9563 8127 8124 8121 8117 8112 8107 8100 8095 8089 8084 8080 8076 8073
3121.2236 8070 8066 8063 8060 8057 8053 8048 8041 8034 8026 8019 8012 8005
3127.4912 7996 7987 7978 7970 7964 7960 7956 7954 7952 7950 7950 7951 7950
3133.7588 7947 7940 7932 7923 7917 7914 7913 7914 7914 7913 7909 7904 7899
3140.0264 7894 7889 7882 7874 7865 7857 7852 7851 7853 7856 7859 7860 7861
3146.2937 7860 7860 7860 7861 7864 7868 7873 7877 7880 7880 7876 7870 7862
3152.5613 7856 7853 7852 7852 7854 7855 7855 7855 7854 7854 7854 7856 7858
3158.8289 7860 7861 7859 7855 7850 7846 7843 7842 7840 7838 7836 7833 7831
3165.0964 7830 7828 7825 7820 7814 7808 7803 7800 7798 7796 7793 7790 7788
3171.3638 7785 7782 7779 7775 7771 7768 7767 7767 7767 7765 7762 7756 7749
3177.6313 7742 7736 7730 7725 7719 7714 7710 7708 7706 7706 7704 7700 7694
3183.8989 7687 7679 7671 7664 7660 7657 7655 7653 7650 7647 7643 7640 7636
3190.1665 7634 7631 7629 7627 7623 7618 7610 7601 7590 7580 7571 7564 7560
3196.4338 7556 7550 7542 7532 7522 7514 7509 7506 7504 7501 7497 7491 7483
3202.7014 7476 7468 7459 7449 7439 7428 7418 7408 7398 7388 7378 7368 7358
3208.9690 7349 7341 7332 7324 7315 7307 7301 7297 7295 7293 7290 7283 7274
3215.2366 7262 7252 7245 7242 7243 7245 7247 7246 7240 7231 7221 7212 7206
3221.5039 7202 7200 7199 7199 7198 7196 7193 7189 7186 7183 7181 7178 7176
3227.7715 7173 7169 7167 7167 7168 7169 7169 7167 7164 7163 7165 7168 7171
3234.0391 7172 7170 7164 7158 7154 7154 7157 7161 7165 7167 7168 7169 7172
3240.3066 7178 7184 7191 7197 7202 7207 7213 7222 7232 7243 7255 7265 7275
3246.5740 7284 7292 7300 7308 7316 7325 7333 7342 7349 7354 7359 7365 7373
3252.8416 7385 7398 7410 7419 7425 7427 7428 7429 7431 7434 7437 7440 7442
3259.1091 7445 7447 7450 7452 7454 7455 7455 7455 7455 7456 7460 7464 7470
3265.3767 7474 7475 7472 7467 7460 7455 7450 7447 7443 7441 7438 7438 7441
3271.6440 7446 7452 7457 7460 7460 7458 7455 7452 7448 7444 7438 7432 7427
3277.9116 7423 7422 7423 7424 7426 7428 7429 7428 7425 7419 7411 7401 7391
3284.1792 7384 7379 7378 7378 7378 7377 7373 7365 7355 7343 7330 7318 7308
3290.4468 7302 7300 7300 7301 7300 7298 7294 7292 7291 7290 7288 7284 7278
3296.7141 7270 7261 7252 7243 7234 7225 7215 7203 7190 7177 7162 7147 7133
3302.9817 7120 7109 7100 7093 7088 7083 7077 7070 7062 7055 7049 7043 7038
3309.2493 7030 7018 7003 6984 6962 6941 6922 6905 6892 6882 6872 6861 6847
3315.5168 6831 6813 6796 6780 6768 6757 6745 6731 6712 6690 6666 6643 6621
3321.7842 6602 6584 6566 6548 6530 6514 6498 6485 6471 6456 6439 6419 6399
3328.0518 6378 6358 6338 6320 6302 6285 6269 6254 6240 6230 6222 6216 6212
3334.3193 6209 6209 6212 6221 6234 6252 6274 6297 6320 6342 6364 6386 6408
3340.5869 6430 6454 6480 6508 6537 6567 6597 6626 6654 6680 6705 6730 6754
3346.8542 6777 6796 6813 6827 6840 6854 6870 6887 6903 6915 6921 6920 6911
3353.1218 6897 6879 6859 6836 6809 6779 6745 6707 6668 6628 6588 6546 6503
3359.3894 6457 6409 6359 6307 6254 6204 6161 6126 6104 6095 6100 6119 6152
3365.6570 6201 6266 6346 6440 6544 6654 6765 6871 6971 7063 7149 7229 7302
3371.9243 7366 7420 7463 7495 7520 7540 7557 7571 7583 7588 7588 7582 7573
3378.1919 7561 7550 7541 7533 7527 7518 7507 7491 7471 7448 7424 7400 7377
3384.4595 7357 7340 7325 7310 7294 7275 7254 7230 7206 7183 7165 7151 7142
3390.7271 7135 7130 7126 7121 7117 7116 7117 7121 7128 7136 7145 7155 7166
3396.9944 7179 7192 7207 7223 7241 7261 7283 7304 7322 7338 7349 7358 7366
3403.2620 7375 7387 7401 7415 7428 7437 7443 7447 7452 7459 7468 7478 7488
3409.5295 7495 7501 7506 7513 7521 7532 7545 7560 7574 7588 7602 7615 7629
3415.7971 7644 7660 7676 7691 7706 7722 7739 7757 7776 7795 7814 7834 7854
3422.0645 7874 7893 7908 7920 7930 7938 7948 7959 7970 7978 7981 7979 7974
3428.3320 7969 7968 7970 7976 7982 7984 7982 7973 7961 7948 7935 7923 7912
3434.5996 7901 7889 7876 7861 7844 7823 7799 7771 7740 7707 7675 7642 7608
3440.8672 7571 7529 7481 7430 7378 7330 7287 7250 7219 7194 7173 7157 7145
3447.1345 7136 7130 7126 7122 7119 7116 7114 7111 7108 7104 7102 7103 7110
3453.4021 7123 7143 7171 7209 7257 7317 7390 7472 7561 7652 7741 7824 7899
3459.6697 7965 8022 8071 8115 8155 8194 8230 8262 8287 8305 8317 8325 8331
3465.9373 8339 8347 8356 8363 8369 8373 8376 8377 8377 8375 8373 8371 8371
3472.2046 8374 8379 8385 8389 8391 8390 8386 8381 8377 8375 8375 8378 8380
3478.4722 8382 8383 8384 8385 8384 8383 8379 8376 8374 8374 8375 8376 8374
3484.7397 8370 8364 8360 8358 8358 8359 8359 8359 8358 8358 8361 8364 8369
3491.0073 8373 8378 8382 8384 8384 8381 8374 8364 8352 8341 8334 8332 8336
3497.2747 8343 8351 8356 8357 8355 8351 8348 8348 8352 8358 8366 8371 8372
3503.5422 8366 8357 8348 8340 8334 8331 8328 8324 8320 8318 8319 8322 8326
3509.8098 8326 8323 8317 8312 8309 8311 8317 8324 8330 8332 8332 8328 8324
3516.0774 8320 8317 8315 8313 8310 8308 8305 8301 8297 8294 8293 8294 8297
3522.3447 8303 8309 8315 8319 8320 8319 8317 8315 8314 8315 8316 8316 8312
3528.6123 8305 8297 8288 8282 8278 8278 8281 8286 8292 8298 8301 8301 8298
3534.8799 8294 8289 8285 8283 8283 8285 8286 8287 8287 8285 8281 8275 8268
3541.1475 8261 8254 8250 8248 8251 8257 8267 8279 8289 8295 8296 8293 8288
3547.4148 8282 8276 8271 8266 8261 8256 8253 8252 8254 8259 8264 8266 8266
3553.6824 8262 8256 8250 8246 8245 8246 8249 8252 8255 8258 8259 8260 8261
3559.9500 8260 8259 8257 8256 8255 8255 8254 8252 8249 8244 8240 8239 8240
3566.2175 8244 8248 8251 8254 8258 8261 8264 8265 8262 8258 8253 8249 8248
3572.4851 8249 8252 8254 8256 8258 8260 8262 8263 8261 8255 8247 8239 8234
3578.7524 8233 8235 8237 8236 8233 8228 8224 8223 8224 8226 8226 8224 8219
3585.0200 8215 8214 8216 8223 8230 8236 8238 8237 8236 8236 8236 8235 8232
3591.2876 8226 8217 8207 8198 8194 8197 8204 8212 8218 8220 8217 8213 8210
3597.5552 8209 8210 8213 8217 8223 8227 8231 8233 8233 8232 8230 8226 8222
3603.8225 8216 8210 8204 8201 8200 8200 8199 8195 8189 8183 8181 8184 8188
3610.0901 8191 8190 8187 8183 8181 8182 8188 8195 8200 8202 8203 8202 8202
3616.3577 8202 8202 8202 8198 8192 8186 8182 8181 8182 8182 8180 8176 8173
3622.6252 8172 8175 8180 8186 8190 8192 8191 8187 8183 8177 8171 8169 8177
3628.8926 8197 8216 8225 8222 8214 8202 8191 8183 8181 8183 8186 8187 8185
3635.1602 8180 8174 8170 8168 8168 8167 8165 8162 8159 8156 8153 8151 8149
3641.4277 8148 8149 8154 8161 8169 8175 8178 8178 8174 8168 8163 8161 8165
3647.6953 8173 8186 8201 8219 8235 8244 8241 8230 8217 8206 8197 8190 8182
3653.9626 8174 8166 8161 8161 8166 8174 8178 8180 8179 8179 8180 8181 8180
3660.2302 8176 8171 8165 8160 8156 8154 8151 8148 8144 8141 8138 8137 8138
3666.4978 8140 8142 8145 8146 8144 8143 8149 8168 8196 8217 8222 8213 8193
3672.7654 8168 8142 8121 8115 8139 8184 8212 8208 8190 8173 8162 8158 8162
3679.0327 8171 8179 8181 8179 8172 8165 8157 8150 8144 8140 8136 8133 8130
3685.3003 8126 8121 8117 8117 8124 8140 8158 8168 8168 8163 8158 8157 8159
3691.5679 8160 8159 8155 8151 8148 8147 8148 8148 8148 8148 8148 8147 8147
3697.8354 8146 8142 8135 8127 8119 8115 8120 8133 8150 8163 8166 8161 8153
3704.1028 8146 8141 8140 8142 8143 8143 8144 8145 8150 8156 8161 8161 8155
3710.3704 8145 8137 8134 8137 8141 8139 8134 8127 8122 8122 8126 8133 8140
3716.6379 8145 8149 8152 8155 8158 8158 8152 8143 8132 8125 8125 8132 8141
3722.9055 8147 8146 8140 8132 8122 8113 8105 8100 8098 8098 8099 8099 8097
3729.1729 8095 8094 8096 8106 8122 8139 8149 8147 8137 8125 8120 8126 8140
3735.4404 8152 8152 8142 8131 8124 8123 8125 8129 8131 8131 8129 8126 8122
3741.7080 8117 8110 8102 8097 8104 8129 8158 8169 8163 8150 8137 8126 8120
3747.9756 8120 8127 8137 8143 8142 8135 8128 8128 8135 8144 8148 8144 8135
3754.2429 8125 8114 8107 8102 8102 8102 8101 8099 8100 8107 8121 8138 8149
3760.5105 8150 8143 8133 8123 8116 8114 8114 8117 8120 8124 8127 8129 8127
3766.7781 8121 8113 8104 8096 8092 8096 8105 8115 8120 8121 8118 8114 8109
3773.0457 8104 8098 8095 8094 8098 8103 8107 8108 8105 8101 8099 8105 8117
3779.3130 8131 8138 8137 8130 8121 8113 8107 8104 8103 8105 8108 8113 8117
3785.5806 8118 8116 8113 8108 8105 8102 8101 8100 8100 8100 8100 8102 8104
3791.8481 8106 8106 8105 8101 8096 8090 8085 8084 8088 8096 8105 8111 8113
3798.1157 8110 8104 8095 8083 8071 8065 8071 8089 8109 8122 8126 8124 8119
3804.3831 8111 8101 8091 8087 8092 8107 8122 8129 8129 8125 8119 8114 8110
3810.6506 8107 8104 8102 8099 8096 8091 8085 8080 8077 8081 8092 8105 8111
3816.9182 8108 8099 8089 8081 8076 8077 8087 8108 8128 8134 8125 8111 8099
3823.1858 8091 8088 8088 8089 8090 8091 8092 8094 8096 8098 8097 8094 8089
3829.4531 8083 8079 8078 8080 8084 8085 8082 8077 8072 8071 8074 8081 8086
3835.7207 8087 8085 8083 8084 8090 8096 8097 8093 8089 8087 8089 8093 8096
3841.9883 8096 8095 8093 8091 8090 8086 8081 8073 8066 8060 8059 8063 8071
3848.2559 8079 8084 8086 8082 8077 8071 8067 8067 8071 8079 8091 8104 8115
3854.5232 8120 8120 8117 8112 8105 8098 8092 8088 8083 8078 8074 8070 8068
3860.7908 8071 8077 8083 8087 8085 8081 8078 8081 8091 8104 8110 8107 8096
3867.0583 8081 8064 8048 8039 8045 8067 8094 8108 8107 8097 8084 8072 8065
3873.3259 8065 8075 8087 8094 8095 8091 8085 8080 8077 8075 8074 8074 8074
3879.5933 8078 8083 8090 8095 8096 8094 8088 8081 8072 8065 8063 8070 8082
3885.8608 8094 8098 8095 8087 8079 8070 8064 8059 8059 8064 8075 8087 8095
3892.1284 8096 8092 8086 8082 8080 8082 8084 8084 8080 8073 8065 8059 8059
3898.3960 8066 8078 8089 8095 8096 8094 8092 8090 8090 8088 8086 8085 8084
3904.6633 8085 8087 8089 8090 8090 8089 8087 8086 8085 8084 8085 8087 8089
3910.9309 8090 8088 8085 8082 8079 8080 8081 8083 8083 8081 8080 8080 8084
3917.1985 8089 8094 8096 8097 8097 8097 8097 8097 8095 8091 8086 8082 8079
3923.4661 8079 8083 8090 8097 8102 8104 8104 8102 8099 8097 8095 8092 8088
3929.7334 8084 8081 8081 8084 8091 8098 8102 8102 8100 8096 8094 8093 8094
3936.0010 8094 8094 8094 8092 8092 8092 8093 8093 8093 8091 8088 8086 8084
3942.2686 8083 8084 8086 8088 8090 8093 8096 8099 8102 8105 8106 8106 8105
3948.5361 8105 8104 8103 8101 8098 8093 8088 8084 8082 8081 8081 8083 8085
3954.8035 8088 8089 8090 8089 8088 8088 8089 8092 8095 8097 8096 8093 8090
3961.0710 8089 8090 8093 8097 8101 8104 8106 8108 8109 8107 8103 8096 8088
3967.3386 8081 8077 8076 8079 8084 8090 8095 8098 8098 8096 8093 8092 8092
3973.6062 8094 8096 8097 8096 8093 8090 8089 8091 8095 8100 8103 8104 8102
3979.8735 8098 8095 8092 8090 8089 8089 8089 8089 8090 8091 8093 8094 8094
3986.1411 8091 8088 8084 8082 8082 8084 8087 8089 8090 8090 8091 8092 8094
3992.4087 8096 8097 8096 8095 8093 8092 8091 8090 8088 8086 8083 8081 8080
3998.6763 8080 8082 8084 8087
##END= 
