##TITLE= INC393
##JCAMP-DX= 4.24
##DATA TYPE= INFRARED SPECTRUM
##ORIGIN= JASCO
##OWNER= 
##DATE= 22/04/13
##TIME= 18:25:35
##SPECTROMETER/DATA SYSTEM= 
##RESOLUTION= 
##DELTAX=   0.48211674
##XUNITS= 1/CM
##YUNITS= TRANSMITTANCE
##XFACTOR= 1.00000
##YFACTOR= 0.0001
##FIRSTX=   599.7532
##LASTX=  4000.1226
##NPOINTS=     7054
##FIRSTY=      1.04432
##MAXY=      1.46801
##MINY=      0.31987
##XYDATA= (X++(Y..Y))
599.7532 10443 10463 10465 10443 10399 10345 10297 10273 10282 10322 10373
605.0565 10410 10412 10378 10322 10272 10247 10253 10275 10292 10284 10249
610.3598 10200 10158 10139 10147 10169 10187 10181 10143 10081 10015 9965 9948
616.1452 9965 10008 10057 10095 10113 10114 10106 10097 10090 10082 10069
621.4485 10045 10008 9962 9914 9873 9846 9835 9836 9839 9837 9828 9814 9803
627.7160 9802 9814 9837 9867 9896 9916 9922 9913 9889 9855 9814 9769 9726 9687
634.4656 9659 9646 9649 9664 9682 9691 9680 9650 9608 9566 9536 9522 9522 9527
641.2153 9531 9530 9522 9507 9485 9455 9418 9377 9336 9297 9261 9225 9187 9151
647.9649 9122 9103 9091 9074 9041 8988 8922 8861 8822 8812 8825 8838 8827 8779
654.7145 8701 8614 8545 8510 8508 8525 8537 8524 8476 8396 8295 8189 8092 8014
661.4642 7960 7926 7902 7875 7835 7778 7711 7643 7578 7514 7441 7342 7183 6935
668.2138 6662 6510 6456 6402 6310 6179 6014 5819 5600 5362 5109 4849 4587 4334
674.9634 4099 3887 3701 3539 3400 3287 3213 3199 3268 3429 3666 3938 4195 4404
681.7131 4563 4701 4860 5079 5374 5741 6163 6614 7066 7491 7866 8171 8395 8536
688.4627 8603 8615 8596 8564 8525 8473 8396 8289 8155 8009 7860 7711 7554 7380
695.2123 7185 6971 6744 6504 6245 5962 5654 5336 5028 4749 4508 4301 4114 3933
701.9620 3756 3590 3450 3352 3306 3318 3386 3504 3661 3841 4032 4225 4416 4603
708.7116 4789 4974 5158 5340 5517 5688 5852 6013 6176 6351 6542 6753 6976 7204
715.4612 7425 7636 7841 8051 8275 8516 8765 9009 9232 9420 9569 9686 9782 9867
722.2109 9949 10033 10121 10215 10315 10416 10515 10602 10674 10729 10769
727.5142 10803 10839 10885 10946 11019 11099 11178 11247 11302 11344 11378
732.8174 11409 11442 11478 11516 11556 11597 11643 11694 11751 11811 11875
738.1207 11940 12011 12091 12181 12278 12378 12478 12577 12682 12799 12933
743.4240 13086 13254 13431 13611 13790 13961 14119 14258 14374 14466 14537
748.7273 14592 14634 14664 14680 14679 14657 14608 14529 14425 14307 14190
754.0306 14087 14005 13941 13888 13845 13814 13800 13801 13804 13790 13748
759.3339 13680 13609 13564 13565 13617 13705 13805 13894 13958 13994 14002
764.6371 13982 13930 13841 13719 13571 13408 13241 13075 12911 12749 12588
769.9404 12427 12264 12099 11931 11766 11610 11472 11357 11265 11193 11133
775.2437 11077 11019 10961 10906 10860 10829 10813 10810 10813 10816 10813
780.5470 10802 10785 10764 10743 10726 10715 10712 10714 10718 10716 10704
785.8503 10683 10656 10631 10616 10612 10617 10625 10630 10629 10624 10619
791.1536 10617 10619 10623 10626 10622 10613 10599 10586 10574 10568 10565
796.4568 10564 10563 10561 10556 10547 10536 10522 10511 10506 10509 10519
801.7601 10531 10537 10533 10520 10502 10486 10478 10477 10480 10482 10482
807.0634 10478 10470 10456 10433 10401 10361 10320 10283 10256 10240 10233
812.3667 10229 10221 10203 10173 10128 10070 9995 9894 9744 9519 9205 8821
818.1521 8422 8097 7931 7974 8217 8596 9019 9404 9700 9896 10011 10075 10112
824.4196 10140 10168 10199 10233 10265 10289 10301 10300 10288 10270 10250
829.7229 10229 10207 10182 10157 10129 10100 10070 10037 10003 9965 9921 9864
835.5083 9792 9703 9598 9481 9354 9214 9054 8870 8659 8423 8170 7910 7656 7420
842.2579 7213 7046 6927 6858 6838 6861 6921 7017 7151 7326 7543 7795 8069 8350
849.0076 8621 8871 9096 9294 9464 9607 9728 9832 9926 10016 10105 10193 10276
855.2751 10352 10418 10476 10525 10568 10607 10641 10674 10705 10735 10763
860.5784 10789 10812 10834 10856 10880 10904 10926 10943 10954 10959 10963
865.8817 10966 10970 10973 10971 10967 10961 10957 10958 10962 10966 10969
871.1849 10967 10962 10955 10946 10934 10921 10909 10901 10897 10895 10893
876.4882 10887 10875 10860 10843 10826 10812 10801 10792 10784 10778 10772
881.7915 10766 10760 10754 10748 10744 10742 10740 10737 10730 10720 10705
887.0948 10688 10672 10659 10651 10649 10652 10656 10659 10658 10652 10643
892.3981 10630 10617 10605 10597 10594 10597 10606 10616 10624 10628 10627
897.7014 10622 10616 10611 10608 10607 10607 10607 10606 10604 10603 10602
903.0046 10602 10602 10599 10594 10586 10578 10571 10567 10564 10561 10556
908.3079 10547 10537 10527 10519 10513 10508 10501 10490 10475 10456 10434
913.6112 10409 10382 10349 10309 10257 10188 10097 9982 9847 9707 9580 9487
919.3966 9445 9462 9534 9647 9782 9919 10044 10148 10232 10296 10346 10387
925.1820 10424 10460 10496 10528 10557 10581 10599 10614 10628 10640 10651
930.4853 10660 10669 10678 10690 10705 10721 10737 10748 10754 10756 10756
935.7886 10756 10759 10765 10771 10777 10780 10781 10780 10781 10784 10790
941.0919 10798 10806 10812 10813 10812 10809 10806 10803 10802 10801 10801
946.3951 10802 10804 10809 10815 10820 10823 10823 10820 10815 10809 10804
951.6984 10801 10799 10798 10796 10794 10790 10785 10780 10777 10778 10783
957.0017 10792 10802 10811 10817 10820 10820 10817 10812 10807 10801 10795
962.3050 10790 10785 10780 10776 10773 10773 10775 10778 10779 10777 10770
967.6083 10759 10748 10738 10728 10719 10709 10698 10685 10672 10660 10649
972.9116 10643 10642 10649 10664 10686 10711 10736 10759 10778 10794 10809
978.2148 10824 10838 10850 10860 10868 10875 10880 10886 10894 10903 10915
983.5181 10928 10943 10959 10974 10987 10999 11009 11018 11028 11039 11049
988.8214 11060 11070 11079 11088 11098 11108 11116 11122 11129 11138 11151
994.1247 11169 11188 11201 11205 11199 11187 11175 11168 11169 11175 11184
999.4280 11190 11190 11184 11173 11159 11141 11119 11089 11047 10994 10933
1004.7313 10870 10813 10765 10730 10713 10717 10747 10805 10889 10988 11089
1010.0345 11177 11245 11288 11311 11319 11318 11309 11297 11280 11261 11240
1015.3378 11219 11200 11186 11176 11171 11165 11156 11140 11115 11080 11038
1020.6411 10990 10933 10866 10787 10693 10589 10478 10369 10264 10166 10071
1025.9445 9973 9867 9751 9631 9521 9441 9409 9440 9536 9690 9885 10100 10314
1032.2119 10511 10680 10816 10921 10996 11048 11079 11093 11095 11088 11078
1037.5153 11068 11061 11057 11052 11044 11028 11006 10979 10951 10926 10906
1042.8185 10889 10872 10854 10832 10807 10780 10753 10728 10705 10686 10671
1048.1218 10658 10648 10638 10628 10615 10598 10578 10555 10533 10513 10497
1053.4250 10482 10466 10445 10420 10391 10359 10326 10291 10254 10212 10163
1058.7284 10107 10043 9969 9886 9792 9688 9573 9449 9322 9194 9069 8951 8836
1064.9958 8723 8609 8494 8382 8285 8216 8190 8219 8312 8469 8683 8939 9217
1071.2634 9495 9755 9986 10185 10352 10490 10601 10686 10747 10789 10819 10843
1077.0488 10865 10886 10906 10919 10926 10925 10921 10917 10915 10918 10922
1082.3521 10926 10927 10922 10914 10904 10894 10886 10880 10875 10872 10869
1087.6554 10866 10861 10854 10846 10836 10826 10815 10805 10795 10784 10774
1092.9586 10763 10752 10739 10723 10705 10686 10665 10646 10630 10616 10605
1098.2620 10597 10590 10584 10578 10569 10558 10544 10527 10510 10494 10482
1103.5652 10474 10470 10470 10471 10474 10477 10480 10482 10484 10485 10487
1108.8685 10489 10493 10498 10504 10512 10521 10528 10534 10538 10539 10539
1114.1718 10540 10543 10547 10553 10559 10566 10573 10581 10589 10597 10603
1119.4751 10605 10603 10600 10596 10595 10595 10597 10599 10601 10602 10603
1124.7783 10604 10606 10609 10613 10620 10628 10638 10648 10656 10662 10666
1130.0817 10669 10668 10666 10661 10656 10650 10647 10647 10651 10658 10667
1135.3849 10677 10686 10694 10701 10705 10708 10710 10712 10714 10716 10719
1140.6882 10722 10724 10726 10728 10731 10734 10738 10743 10751 10762 10776
1145.9915 10791 10806 10821 10834 10846 10855 10862 10866 10870 10874 10880
1151.2948 10888 10899 10911 10922 10933 10943 10954 10966 10979 10992 11005
1156.5980 11016 11027 11039 11053 11067 11080 11091 11100 11107 11116 11126
1161.9014 11138 11150 11161 11170 11175 11177 11179 11182 11186 11193 11202
1167.2046 11211 11219 11225 11227 11227 11225 11223 11221 11218 11214 11209
1172.5079 11202 11196 11191 11189 11190 11193 11196 11199 11199 11198 11197
1177.8112 11194 11191 11186 11179 11170 11159 11149 11142 11141 11147 11159
1183.1145 11176 11196 11217 11238 11257 11272 11281 11284 11282 11279 11276
1188.4177 11275 11277 11280 11281 11280 11277 11273 11269 11264 11259 11252
1193.7211 11244 11235 11226 11219 11214 11210 11206 11201 11195 11188 11181
1199.0243 11174 11167 11160 11152 11143 11133 11123 11113 11103 11093 11083
1204.3276 11073 11064 11056 11049 11042 11035 11026 11016 11004 10991 10977
1209.6309 10963 10947 10932 10918 10906 10897 10890 10884 10877 10869 10859
1214.9342 10846 10832 10819 10807 10795 10785 10775 10765 10753 10742 10729
1220.2374 10715 10701 10685 10667 10650 10633 10618 10605 10594 10583 10573
1225.5408 10562 10550 10536 10520 10504 10487 10471 10456 10442 10429 10416
1230.8440 10403 10390 10377 10363 10347 10330 10312 10294 10276 10261 10247
1236.1473 10234 10224 10215 10207 10201 10195 10190 10185 10177 10168 10158
1241.4506 10148 10139 10133 10130 10128 10127 10124 10120 10115 10109 10104
1246.7539 10101 10100 10101 10104 10110 10118 10128 10138 10148 10157 10166
1252.0571 10176 10189 10207 10228 10254 10282 10311 10338 10363 10386 10408
1257.3605 10430 10451 10471 10488 10503 10513 10519 10519 10510 10492 10464
1262.6637 10427 10384 10338 10294 10259 10244 10253 10287 10333 10368 10370
1267.9670 10326 10245 10152 10079 10046 10062 10118 10198 10284 10363 10429
1273.2703 10482 10524 10557 10579 10591 10592 10583 10564 10537 10504 10468
1278.5736 10431 10393 10355 10316 10276 10237 10200 10166 10135 10109 10085
1283.8768 10064 10046 10030 10016 10005 9997 9990 9983 9978 9973 9968 9965
1289.6622 9961 9957 9952 9947 9939 9931 9922 9913 9905 9898 9891 9882 9869
1295.9298 9852 9830 9804 9773 9738 9699 9660 9624 9599 9590 9597 9618 9645
1302.1973 9667 9675 9664 9632 9582 9516 9441 9360 9281 9211 9157 9129 9134
1308.4648 9173 9245 9340 9450 9565 9676 9780 9873 9954 10022 10075 10116 10144
1314.7323 10164 10175 10180 10180 10175 10167 10157 10146 10135 10125 10115
1320.0356 10104 10091 10076 10059 10041 10023 10006 9989 9972 9956 9939 9922
1325.8210 9905 9886 9866 9846 9827 9808 9791 9774 9756 9736 9713 9690 9667
1332.0885 9646 9625 9606 9586 9567 9546 9525 9504 9481 9458 9433 9407 9380
1338.3561 9353 9327 9304 9286 9271 9258 9243 9226 9207 9187 9165 9143 9121
1344.6235 9099 9076 9054 9032 9010 8988 8965 8939 8911 8882 8854 8828 8803
1350.8911 8779 8754 8728 8701 8674 8646 8617 8588 8559 8530 8502 8474 8445
1357.1586 8412 8377 8341 8304 8267 8230 8191 8151 8111 8072 8034 7997 7961
1363.4261 7927 7893 7860 7826 7789 7751 7711 7670 7631 7592 7555 7519 7483
1369.6936 7448 7413 7378 7343 7309 7275 7242 7207 7171 7134 7096 7058 7017
1375.9612 6973 6923 6868 6807 6741 6671 6597 6520 6439 6355 6267 6177 6083
1382.2286 5986 5884 5778 5667 5553 5440 5329 5218 5106 4989 4873 4767 4680
1388.4962 4615 4564 4522 4484 4447 4409 4372 4333 4294 4251 4205 4155 4103
1394.7637 4056 4017 3987 3964 3945 3929 3914 3901 3889 3875 3857 3834 3805
1401.0313 3771 3734 3697 3661 3630 3606 3592 3592 3607 3632 3663 3696 3731
1407.2987 3770 3815 3868 3927 3991 4060 4133 4209 4288 4368 4449 4530 4611
1413.5663 4691 4768 4844 4921 4999 5078 5155 5227 5295 5367 5458 5582 5728
1419.8337 5861 5963 6037 6099 6159 6227 6309 6411 6529 6650 6762 6865 6961
1426.1013 7058 7158 7262 7366 7470 7575 7690 7817 7951 8080 8192 8289 8381
1432.3688 8475 8576 8677 8770 8848 8913 8974 9044 9136 9244 9342 9413 9463
1438.6364 9503 9539 9573 9604 9633 9658 9683 9710 9742 9779 9824 9876 9931
1444.9038 9985 10034 10076 10108 10132 10150 10165 10180 10194 10208 10218
1450.2072 10225 10229 10229 10229 10228 10228 10229 10229 10228 10226 10220
1455.5104 10211 10194 10167 10132 10097 10073 10061 10058 10062 10068 10075
1460.8137 10081 10084 10084 10083 10079 10071 10059 10039 10013 9990 9975 9968
1466.5991 9965 9962 9957 9949 9940 9931 9922 9914 9903 9888 9862 9824 9778
1472.8666 9741 9722 9716 9715 9710 9700 9682 9659 9638 9621 9609 9598 9587
1479.1342 9572 9555 9535 9512 9489 9466 9445 9425 9407 9390 9374 9359 9343
1485.4016 9325 9303 9276 9243 9208 9176 9146 9110 9061 8997 8931 8888 8876
1491.6692 8889 8913 8942 8968 8988 9000 9002 8994 8978 8958 8941 8929 8918
1497.9366 8905 8887 8864 8840 8817 8795 8774 8752 8730 8708 8688 8669 8650
1504.2042 8629 8603 8568 8518 8452 8389 8350 8325 8301 8272 8242 8211 8181
1510.4717 8149 8112 8067 8014 7956 7900 7845 7791 7735 7678 7616 7548 7470
1516.7393 7387 7309 7247 7199 7160 7122 7081 7034 6979 6924 6878 6845 6817
1523.0067 6789 6760 6726 6685 6634 6573 6510 6448 6384 6313 6234 6148 6061
1529.2743 5978 5895 5810 5721 5629 5534 5434 5321 5189 5046 4915 4806 4713
1535.5417 4626 4539 4453 4369 4291 4216 4135 4036 3922 3830 3777 3743 3708
1541.8093 3665 3618 3573 3532 3493 3452 3412 3380 3361 3353 3352 3355 3362
1548.0768 3376 3404 3451 3524 3617 3712 3794 3857 3907 3953 4010 4100 4234
1554.3444 4395 4535 4632 4691 4732 4768 4814 4892 5054 5369 5740 5994 6148
1560.6118 6258 6349 6432 6515 6606 6709 6830 6972 7131 7297 7456 7596 7715
1566.8794 7815 7902 7985 8078 8200 8359 8527 8664 8765 8845 8922 9002 9086
1573.1469 9168 9241 9301 9352 9402 9464 9542 9619 9678 9720 9753 9785 9816
1579.4144 9846 9871 9892 9905 9913 9915 9910 9899 9879 9848 9801 9732 9638
1585.6819 9514 9360 9177 8968 8734 8482 8215 7938 7650 7350 7034 6702 6356
1591.9495 6010 5675 5369 5106 4904 4780 4744 4798 4933 5134 5384 5667 5969
1598.2170 6276 6583 6886 7182 7469 7742 7995 8224 8432 8618 8787 8939 9077
1604.4845 9205 9331 9459 9591 9723 9849 9961 10055 10134 10200 10258 10308
1610.2699 10350 10384 10412 10434 10452 10467 10481 10493 10503 10509 10510
1615.5732 10501 10479 10446 10417 10400 10391 10381 10363 10333 10293 10245
1620.8765 10194 10145 10097 10053 10017 10002 10014 10045 10083 10119 10151
1626.1798 10179 10202 10218 10229 10235 10240 10244 10247 10249 10248 10244
1631.4830 10239 10233 10227 10221 10216 10209 10199 10182 10160 10141 10133
1636.7864 10132 10134 10138 10140 10143 10145 10147 10149 10151 10153 10155
1642.0896 10157 10159 10160 10161 10161 10159 10156 10149 10139 10129 10124
1647.3929 10126 10135 10146 10158 10169 10178 10187 10194 10199 10198 10184
1652.6962 10147 10109 10113 10141 10167 10189 10205 10218 10229 10237 10244
1657.9995 10248 10252 10255 10258 10262 10266 10270 10273 10275 10277 10281
1663.3027 10289 10299 10307 10314 10320 10324 10329 10335 10341 10349 10356
1668.6061 10363 10368 10373 10377 10383 10392 10405 10421 10438 10453 10466
1673.9093 10476 10483 10486 10490 10500 10515 10532 10549 10563 10575 10585
1679.2126 10595 10607 10624 10644 10664 10682 10696 10703 10699 10685 10673
1684.5159 10687 10719 10750 10775 10793 10806 10816 10822 10827 10832 10838
1689.8192 10845 10853 10861 10868 10875 10883 10893 10904 10914 10922 10923
1695.1224 10914 10895 10879 10878 10887 10900 10913 10922 10926 10916 10885
1700.4258 10851 10841 10848 10859 10868 10873 10874 10870 10861 10849 10836
1705.7290 10823 10813 10808 10808 10810 10813 10813 10810 10804 10798 10792
1711.0323 10788 10784 10779 10772 10763 10751 10737 10727 10722 10722 10724
1716.3356 10724 10716 10695 10668 10649 10645 10651 10659 10666 10669 10667
1721.6389 10661 10652 10639 10626 10615 10607 10603 10601 10597 10590 10579
1726.9421 10566 10554 10543 10533 10522 10508 10490 10472 10457 10446 10437
1732.2455 10427 10413 10390 10361 10340 10334 10336 10338 10336 10331 10323
1737.5487 10313 10300 10284 10264 10242 10225 10214 10209 10206 10200 10190
1742.8521 10176 10159 10144 10133 10125 10120 10114 10106 10097 10085 10073
1748.1553 10061 10052 10047 10042 10038 10031 10022 10014 10009 10006 10005
1753.4586 10003 9999 9994 9986 9978 9968 9959 9954 9951 9951 9952 9952 9951
1759.7261 9949 9946 9940 9932 9922 9914 9910 9910 9911 9913 9913 9911 9908
1765.9937 9905 9902 9900 9898 9896 9894 9891 9887 9881 9871 9857 9841 9830
1772.2611 9833 9848 9865 9877 9884 9886 9884 9882 9879 9879 9879 9879 9880
1778.5287 9880 9879 9878 9878 9880 9882 9885 9888 9889 9889 9886 9883 9880
1784.7961 9878 9878 9879 9880 9881 9880 9879 9876 9872 9866 9859 9852 9846
1791.0637 9842 9841 9844 9850 9856 9861 9863 9863 9860 9857 9855 9856 9859
1797.3312 9862 9865 9865 9861 9855 9849 9845 9844 9847 9852 9857 9861 9864
1803.5988 9864 9863 9861 9858 9855 9852 9849 9848 9847 9849 9852 9855 9856
1809.8662 9856 9855 9855 9856 9858 9860 9862 9862 9862 9862 9861 9861 9860
1816.1338 9858 9856 9856 9857 9860 9864 9869 9872 9873 9871 9867 9862 9858
1822.4012 9856 9860 9867 9878 9891 9903 9909 9908 9901 9892 9883 9874 9868
1828.6688 9865 9866 9870 9874 9877 9879 9881 9884 9889 9896 9903 9907 9908
1834.9363 9906 9903 9900 9901 9904 9911 9918 9925 9930 9933 9933 9930 9926
1841.2039 9921 9916 9912 9908 9904 9900 9897 9897 9901 9907 9912 9914 9914
1847.4713 9911 9907 9903 9901 9902 9906 9912 9920 9927 9932 9933 9931 9928
1853.7389 9925 9924 9924 9926 9927 9926 9922 9915 9906 9899 9898 9902 9911
1860.0063 9921 9930 9934 9934 9931 9928 9926 9926 9926 9927 9927 9926 9925
1866.2739 9923 9920 9916 9912 9910 9911 9917 9925 9932 9933 9929 9919 9907
1872.5414 9895 9888 9887 9892 9899 9906 9911 9913 9914 9913 9912 9914 9918
1878.8090 9924 9930 9931 9926 9914 9900 9887 9878 9875 9878 9884 9892 9900
1885.0764 9905 9909 9909 9907 9905 9902 9899 9896 9888 9877 9863 9850 9841
1891.3440 9838 9840 9845 9853 9861 9870 9877 9881 9881 9876 9868 9860 9853
1897.6115 9849 9850 9854 9859 9864 9868 9872 9874 9876 9877 9877 9875 9871
1903.8790 9865 9858 9851 9845 9841 9841 9846 9855 9868 9880 9889 9892 9889
1910.1465 9883 9878 9878 9883 9892 9902 9909 9912 9911 9904 9895 9885 9878
1916.4141 9875 9876 9877 9874 9864 9853 9845 9847 9858 9877 9898 9916 9926
1922.6815 9927 9923 9917 9911 9905 9901 9898 9898 9902 9909 9915 9918 9914
1928.9491 9905 9894 9883 9876 9874 9878 9884 9890 9890 9885 9876 9870 9871
1935.2166 9879 9891 9900 9902 9898 9893 9895 9904 9918 9928 9929 9920 9904
1941.4841 9886 9870 9859 9851 9844 9839 9836 9837 9840 9841 9837 9824 9804
1947.7516 9782 9762 9751 9755 9775 9807 9845 9878 9901 9911 9911 9904 9894
1954.0192 9879 9861 9842 9828 9826 9836 9854 9872 9881 9880 9873 9862 9848
1960.2866 9829 9803 9772 9747 9739 9756 9798 9857 9917 9963 9984 9978 9950
1966.5542 9913 9881 9867 9871 9883 9893 9891 9877 9857 9843 9841 9855 9879
1972.8217 9907 9935 9958 9978 9995 10007 10012 10002 9975 9928 9868 9806 9754
1979.0892 9722 9716 9730 9757 9790 9822 9852 9880 9909 9936 9958 9970 9969
1985.3567 9953 9928 9897 9867 9844 9833 9835 9848 9867 9885 9897 9902 9905
1991.6243 9908 9909 9904 9888 9861 9832 9814 9818 9846 9890 9933 9961 9965
1997.8917 9951 9928 9909 9897 9891 9887 9884 9885 9893 9907 9922 9929 9923
2004.1593 9908 9895 9903 9943 10015 10102 10172 10200 10174 10106 10024 9953
2009.9447 9909 9891 9891 9896 9901 9905 9911 9921 9933 9946 9959 9969 9975
2016.2122 9974 9965 9948 9924 9898 9871 9847 9828 9825 9844 9891 9955 10019
2022.4797 10061 10066 10035 9982 9925 9879 9847 9829 9823 9832 9858 9895 9935
2028.7472 9962 9963 9937 9894 9851 9825 9826 9854 9900 9948 9984 9999 9998
2035.0148 9991 9988 9992 9999 10002 9995 9981 9967 9957 9948 9935 9913 9888
2041.2822 9872 9875 9894 9920 9939 9944 9940 9940 9953 9979 10008 10030 10037
2047.5498 10031 10018 10005 9997 9996 10004 10019 10036 10050 10053 10044
2052.8530 10025 10003 9984 9971 9964 9960 9959 9961 9966 9971 9974 9973 9968
2059.1206 9967 9972 9987 10007 10026 10034 10029 10012 9986 9959 9935 9919
2064.9060 9909 9903 9898 9893 9889 9889 9895 9907 9922 9938 9950 9956 9957
2071.1736 9950 9939 9923 9905 9890 9882 9882 9891 9905 9917 9923 9922 9917
2077.4409 9911 9909 9910 9912 9912 9910 9909 9913 9925 9943 9963 9979 9987
2083.7085 9986 9978 9964 9946 9929 9915 9907 9907 9912 9920 9926 9929 9930
2089.9761 9934 9941 9949 9952 9946 9929 9906 9885 9875 9880 9899 9925 9950
2096.2437 9968 9978 9979 9975 9968 9959 9951 9944 9940 9938 9936 9931 9923
2102.5110 9915 9909 9911 9921 9936 9950 9954 9947 9932 9916 9907 9911 9924
2108.7786 9940 9951 9955 9953 9952 9956 9965 9974 9977 9971 9959 9948 9941
2115.0461 9942 9947 9951 9949 9940 9930 9922 9922 9930 9943 9955 9962 9962
2121.3137 9957 9952 9950 9953 9961 9969 9975 9976 9975 9971 9967 9966 9968
2127.5811 9972 9977 9980 9979 9974 9962 9945 9928 9916 9916 9932 9962 9997
2133.8486 10026 10040 10037 10022 10003 9988 9978 9974 9973 9973 9973 9972
2139.6340 9969 9966 9967 9978 9999 10024 10042 10046 10033 10012 9995 9987
2145.4194 9987 9988 9980 9961 9936 9912 9895 9889 9891 9901 9920 9944 9969
2151.6870 9988 9991 9974 9940 9899 9860 9832 9816 9811 9817 9836 9873 9930
2157.9546 10004 10081 10136 10145 10102 10023 9938 9873 9845 9851 9881 9919
2163.7400 9953 9974 9980 9972 9954 9932 9915 9908 9912 9919 9918 9902 9872
2170.0073 9840 9820 9822 9849 9891 9934 9963 9967 9949 9918 9889 9874 9878
2176.2749 9900 9930 9956 9972 9973 9963 9943 9918 9891 9868 9852 9847 9853
2182.5425 9864 9874 9875 9866 9852 9839 9836 9845 9864 9889 9916 9942 9965
2188.8101 9983 9994 9994 9984 9965 9940 9915 9893 9879 9873 9875 9883 9895
2195.0774 9907 9918 9926 9934 9943 9955 9973 9995 10017 10035 10044 10042
2200.8628 10031 10012 9989 9968 9950 9939 9934 9934 9935 9936 9932 9924 9911
2207.1304 9898 9890 9888 9894 9906 9920 9931 9940 9947 9953 9959 9962 9962
2213.3979 9959 9955 9950 9946 9939 9930 9918 9909 9907 9914 9931 9951 9969
2219.6655 9976 9972 9958 9938 9920 9908 9907 9915 9928 9940 9946 9942 9930
2225.9329 9911 9889 9870 9855 9850 9856 9874 9903 9938 9972 9997 10006 9999
2232.2004 9979 9953 9928 9909 9897 9893 9895 9901 9910 9919 9923 9920 9909
2238.4680 9898 9893 9901 9922 9951 9978 9997 10005 10003 9996 9986 9975 9962
2244.7356 9948 9934 9923 9915 9911 9912 9917 9922 9927 9929 9927 9924 9922
2251.0029 9924 9930 9941 9952 9959 9960 9954 9944 9935 9929 9929 9934 9942
2257.2705 9950 9954 9955 9951 9946 9940 9935 9932 9931 9932 9936 9940 9945
2263.5381 9949 9954 9958 9963 9967 9969 9966 9960 9951 9942 9936 9932 9931
2269.8057 9932 9934 9937 9940 9942 9943 9944 9947 9951 9957 9962 9967 9969
2276.0730 9969 9968 9969 9972 9974 9973 9968 9960 9951 9945 9943 9945 9951
2282.3406 9957 9963 9968 9971 9971 9967 9961 9954 9949 9948 9952 9958 9962
2288.6082 9964 9963 9963 9964 9966 9968 9966 9959 9950 9942 9938 9940 9946
2294.8757 9952 9957 9957 9954 9949 9944 9942 9944 9948 9954 9959 9960 9959
2301.1431 9957 9953 9951 9949 9946 9943 9939 9934 9928 9922 9917 9913 9912
2307.4106 9914 9918 9922 9924 9922 9919 9915 9912 9914 9920 9930 9942 9952
2313.6782 9959 9960 9957 9949 9939 9928 9917 9907 9901 9898 9899 9904 9911
2319.9458 9917 9920 9920 9914 9903 9889 9874 9864 9860 9865 9875 9889 9904
2326.2131 9917 9928 9936 9941 9940 9932 9917 9896 9874 9855 9843 9839 9843
2332.4807 9852 9865 9881 9897 9911 9922 9928 9931 9931 9931 9930 9928 9924
2338.7483 9918 9911 9904 9898 9895 9895 9899 9905 9911 9917 9919 9918 9913
2345.0159 9909 9907 9911 9920 9931 9940 9945 9946 9942 9935 9924 9911 9897
2351.2832 9884 9874 9870 9871 9876 9884 9887 9884 9871 9851 9830 9812 9801
2357.5508 9796 9798 9809 9829 9856 9883 9902 9908 9900 9886 9874 9871 9878
2363.8184 9894 9912 9927 9936 9935 9925 9908 9887 9871 9865 9871 9887 9906
2370.0859 9921 9929 9928 9924 9919 9919 9922 9928 9934 9939 9943 9945 9945
2376.3533 9945 9945 9943 9940 9938 9938 9940 9946 9954 9963 9971 9977 9978
2382.6208 9977 9974 9972 9970 9971 9974 9980 9986 9992 9997 10000 10000 9998
2388.8884 9996 9993 9991 9991 9992 9995 9997 9998 9998 9996 9994 9995 9998
2395.1560 10002 10006 10009 10008 10004 9999 9993 9989 9986 9986 9987 9990
2400.9414 9993 9997 10000 10002 10002 10002 10002 10003 10004 10006 10007
2406.2446 10006 10005 10002 10000 10001 10004 10009 10018 10026 10034 10039
2411.5479 10039 10035 10029 10022 10018 10018 10020 10024 10027 10027 10024
2416.8511 10019 10016 10014 10014 10016 10019 10021 10022 10021 10020 10018
2422.1545 10015 10013 10011 10010 10009 10008 10007 10007 10008 10010 10013
2427.4578 10015 10015 10014 10010 10007 10005 10006 10010 10015 10020 10023
2432.7610 10024 10023 10023 10023 10023 10022 10020 10015 10010 10005 10002
2438.0642 10001 10003 10007 10013 10019 10023 10025 10023 10019 10014 10009
2443.3677 10008 10010 10015 10020 10024 10026 10026 10026 10028 10032 10036
2448.6709 10040 10040 10036 10030 10023 10018 10016 10017 10020 10023 10024
2453.9741 10024 10024 10024 10025 10026 10026 10024 10023 10022 10023 10026
2459.2773 10032 10038 10042 10043 10041 10036 10029 10023 10019 10019 10023
2464.5808 10030 10038 10045 10050 10051 10051 10050 10050 10048 10046 10042
2469.8840 10039 10037 10039 10045 10053 10060 10063 10063 10058 10052 10045
2475.1873 10041 10038 10037 10036 10035 10034 10034 10036 10038 10042 10046
2480.4905 10049 10053 10056 10057 10056 10052 10046 10040 10035 10034 10037
2485.7939 10041 10047 10051 10053 10053 10051 10050 10050 10051 10052 10052
2491.0972 10049 10044 10040 10039 10040 10045 10051 10056 10060 10062 10062
2496.4004 10060 10057 10055 10053 10053 10054 10053 10051 10046 10041 10039
2501.7036 10039 10041 10045 10048 10050 10050 10049 10050 10051 10054 10055
2507.0071 10055 10052 10046 10040 10033 10028 10024 10022 10023 10025 10029
2512.3103 10032 10034 10035 10034 10033 10032 10032 10033 10034 10036 10038
2517.6135 10041 10045 10049 10055 10059 10062 10063 10062 10058 10053 10046
2522.9167 10039 10032 10025 10020 10017 10017 10021 10027 10031 10034 10035
2528.2202 10035 10036 10040 10046 10051 10052 10049 10044 10039 10037 10037
2533.5234 10039 10041 10040 10039 10037 10038 10041 10046 10051 10055 10056
2538.8267 10056 10055 10054 10052 10052 10053 10054 10057 10058 10058 10055
2544.1299 10050 10046 10043 10043 10047 10053 10061 10069 10077 10082 10086
2549.4333 10088 10087 10083 10079 10076 10073 10073 10075 10077 10078 10078
2554.7366 10078 10078 10079 10081 10084 10087 10087 10084 10081 10079 10079
2560.0398 10080 10081 10082 10080 10078 10078 10079 10081 10084 10086 10087
2565.3430 10088 10091 10096 10103 10108 10110 10109 10104 10098 10094 10092
2570.6465 10093 10097 10100 10102 10103 10101 10098 10093 10088 10083 10079
2575.9497 10077 10078 10083 10089 10096 10102 10106 10108 10109 10109 10108
2581.2529 10106 10103 10101 10098 10098 10098 10098 10097 10095 10093 10092
2586.5564 10092 10094 10095 10096 10096 10096 10098 10102 10107 10114 10119
2591.8596 10120 10117 10111 10104 10099 10095 10093 10092 10091 10088 10086
2597.1628 10085 10086 10089 10093 10097 10099 10099 10099 10099 10100 10101
2602.4661 10101 10101 10100 10100 10100 10102 10103 10104 10104 10104 10103
2607.7695 10103 10104 10106 10109 10112 10115 10117 10118 10120 10121 10122
2613.0728 10122 10120 10117 10113 10108 10103 10099 10097 10096 10097 10099
2618.3760 10102 10104 10107 10109 10110 10110 10109 10106 10104 10101 10098
2623.6792 10097 10098 10099 10100 10101 10101 10101 10102 10104 10107 10109
2628.9827 10111 10110 10107 10104 10102 10101 10100 10101 10101 10102 10103
2634.2859 10105 10106 10108 10109 10110 10110 10109 10108 10107 10106 10107
2639.5891 10110 10115 10120 10124 10127 10127 10126 10125 10126 10127 10129
2644.8923 10131 10131 10129 10125 10120 10116 10114 10114 10116 10119 10121
2650.1958 10122 10122 10121 10120 10119 10119 10119 10120 10121 10121 10121
2655.4990 10121 10120 10119 10118 10118 10118 10119 10121 10123 10126 10128
2660.8022 10129 10128 10127 10126 10125 10125 10124 10123 10123 10124 10125
2666.1055 10127 10129 10130 10131 10130 10129 10127 10127 10127 10128 10129
2671.4089 10131 10131 10130 10128 10125 10122 10119 10119 10120 10123 10126
2676.7122 10129 10130 10129 10128 10126 10124 10123 10123 10123 10122 10123
2682.0154 10123 10123 10124 10124 10125 10126 10129 10131 10134 10135 10135
2687.3186 10134 10133 10133 10133 10133 10133 10134 10135 10138 10140 10141
2692.6221 10141 10140 10138 10137 10137 10137 10138 10137 10136 10135 10136
2697.9253 10137 10139 10141 10142 10142 10142 10142 10142 10143 10144 10145
2703.2285 10146 10147 10148 10148 10148 10147 10146 10144 10144 10143 10143
2708.5317 10142 10141 10140 10139 10139 10138 10137 10136 10135 10136 10138
2713.8352 10142 10145 10147 10147 10144 10141 10139 10138 10138 10140 10142
2719.1384 10145 10147 10148 10148 10146 10142 10139 10136 10135 10136 10137
2724.4417 10137 10135 10131 10126 10121 10118 10118 10121 10125 10130 10134
2729.7449 10137 10139 10138 10137 10134 10130 10126 10123 10122 10121 10120
2735.0483 10120 10119 10118 10116 10115 10113 10111 10110 10110 10111 10112
2740.3516 10114 10116 10117 10117 10118 10119 10120 10122 10124 10128 10131
2745.6548 10133 10135 10136 10137 10138 10139 10138 10135 10130 10124 10120
2750.9580 10118 10119 10122 10126 10131 10136 10140 10143 10144 10143 10142
2756.2615 10141 10141 10142 10142 10142 10141 10138 10137 10136 10137 10138
2761.5647 10139 10139 10138 10135 10134 10133 10134 10135 10137 10139 10141
2766.8679 10142 10144 10145 10145 10143 10142 10140 10140 10141 10144 10147
2772.1711 10149 10149 10145 10139 10133 10128 10126 10128 10133 10139 10144
2777.4746 10147 10147 10146 10145 10145 10147 10150 10153 10154 10154 10152
2782.7778 10149 10146 10143 10142 10143 10145 10147 10148 10148 10147 10145
2788.0811 10142 10139 10137 10135 10135 10135 10136 10137 10139 10141 10142
2793.3843 10144 10146 10149 10153 10157 10160 10161 10159 10152 10143 10134
2798.6877 10128 10124 10125 10128 10133 10138 10144 10149 10153 10156 10157
2803.9910 10158 10159 10159 10161 10164 10167 10169 10169 10168 10164 10158
2809.2942 10152 10145 10139 10136 10135 10137 10142 10148 10154 10160 10163
2814.5974 10164 10163 10160 10159 10160 10163 10167 10169 10168 10165 10160
2819.9009 10156 10154 10154 10155 10156 10158 10158 10159 10159 10160 10161
2825.2041 10164 10167 10170 10172 10172 10171 10168 10165 10162 10160 10160
2830.5073 10160 10161 10163 10165 10168 10169 10170 10170 10170 10172 10174
2835.8105 10176 10177 10176 10172 10168 10165 10164 10166 10169 10173 10177
2841.1140 10180 10181 10182 10183 10183 10184 10187 10191 10196 10200 10204
2846.4172 10205 10203 10201 10198 10195 10194 10195 10196 10197 10200 10203
2851.7205 10205 10208 10209 10209 10208 10206 10204 10204 10205 10206 10206
2857.0237 10205 10203 10200 10197 10195 10195 10196 10197 10199 10200 10201
2862.3271 10203 10205 10207 10210 10211 10211 10209 10206 10203 10201 10200
2867.6304 10200 10202 10205 10208 10210 10211 10210 10208 10205 10202 10201
2872.9336 10200 10201 10202 10203 10204 10204 10204 10203 10202 10202 10203
2878.2368 10205 10207 10208 10208 10207 10205 10204 10204 10205 10205 10205
2883.5403 10202 10200 10197 10196 10197 10200 10204 10208 10210 10210 10208
2888.8435 10206 10205 10206 10210 10213 10216 10217 10216 10215 10215 10214
2894.1467 10214 10214 10213 10212 10211 10211 10212 10213 10215 10217 10219
2899.4500 10220 10222 10223 10225 10226 10226 10225 10224 10223 10223 10223
2904.7534 10224 10225 10226 10230 10235 10242 10248 10251 10250 10246 10243
2910.0566 10241 10242 10245 10248 10249 10249 10250 10252 10256 10261 10264
2915.3599 10264 10262 10258 10253 10250 10249 10249 10248 10247 10245 10244
2920.6631 10243 10245 10248 10251 10253 10251 10246 10239 10231 10225 10222
2925.9666 10221 10222 10222 10222 10219 10216 10212 10209 10208 10208 10210
2931.2698 10213 10215 10216 10217 10219 10220 10222 10223 10222 10219 10216
2936.5730 10212 10208 10206 10207 10209 10214 10219 10224 10227 10228 10227
2941.8762 10226 10225 10226 10228 10229 10229 10228 10226 10224 10224 10225
2947.1797 10229 10234 10239 10244 10248 10251 10253 10255 10257 10258 10260
2952.4829 10260 10259 10259 10259 10260 10263 10266 10269 10272 10273 10273
2957.7861 10274 10275 10278 10281 10285 10287 10287 10287 10286 10285 10286
2963.0894 10287 10287 10285 10281 10275 10269 10264 10262 10263 10265 10266
2968.3928 10267 10266 10266 10268 10272 10277 10284 10289 10291 10290 10284
2973.6960 10277 10269 10265 10264 10267 10272 10277 10279 10279 10278 10277
2978.9993 10277 10279 10280 10282 10282 10281 10280 10280 10279 10278 10277
2984.3025 10275 10274 10275 10279 10283 10288 10291 10291 10289 10286 10282
2989.6060 10279 10276 10273 10270 10266 10262 10258 10255 10251 10247 10242
2994.9092 10237 10232 10228 10226 10225 10225 10225 10227 10229 10232 10237
3000.2124 10243 10251 10258 10262 10264 10264 10263 10263 10264 10264 10264
3005.5156 10260 10253 10246 10242 10242 10246 10251 10256 10257 10254 10247
3010.8191 10240 10232 10225 10218 10212 10207 10201 10196 10190 10183 10175
3016.1223 10166 10157 10149 10141 10132 10121 10108 10093 10078 10065 10054
3021.4255 10045 10038 10030 10021 10011 10001 9992 9985 9981 9978 9978 9979
3027.2109 9982 9986 9990 9994 9999 10006 10016 10031 10051 10075 10098 10119
3032.9963 10136 10149 10159 10167 10174 10179 10183 10186 10188 10188 10186
3038.2996 10182 10176 10167 10157 10146 10134 10123 10114 10107 10101 10097
3043.6030 10094 10090 10087 10084 10082 10082 10083 10084 10084 10083 10079
3048.9063 10073 10066 10058 10050 10042 10036 10030 10024 10017 10007 9996
3054.2095 9985 9974 9967 9964 9966 9971 9979 9986 9992 9996 9999 10003 10010
3060.4771 10019 10030 10040 10045 10046 10045 10043 10042 10042 10041 10036
3065.7803 10026 10011 9995 9982 9973 9969 9968 9968 9965 9961 9955 9951 9951
3072.0479 9955 9965 9979 9997 10019 10044 10071 10098 10122 10143 10161 10178
3077.8333 10193 10207 10217 10221 10220 10216 10211 10209 10208 10208 10205
3083.1365 10200 10193 10185 10178 10172 10167 10163 10160 10159 10161 10163
3088.4397 10164 10160 10152 10141 10130 10124 10125 10133 10146 10161 10178
3093.7432 10195 10213 10233 10253 10273 10292 10306 10316 10320 10319 10315
3099.0464 10308 10301 10294 10289 10286 10288 10293 10301 10311 10320 10327
3104.3496 10332 10335 10341 10348 10358 10367 10374 10376 10373 10368 10364
3109.6528 10364 10370 10380 10392 10406 10418 10427 10433 10435 10433 10428
3114.9563 10422 10415 10410 10409 10413 10419 10426 10430 10429 10423 10415
3120.2595 10409 10406 10409 10415 10424 10430 10435 10437 10437 10438 10440
3125.5627 10443 10447 10451 10454 10454 10451 10445 10437 10429 10424 10421
3130.8660 10422 10426 10431 10436 10441 10444 10446 10446 10447 10450 10455
3136.1694 10462 10469 10472 10469 10461 10451 10443 10439 10439 10442 10446
3141.4727 10448 10448 10448 10448 10450 10451 10452 10451 10450 10449 10449
3146.7759 10449 10451 10453 10455 10458 10459 10460 10460 10459 10457 10455
3152.0791 10452 10449 10446 10445 10447 10451 10457 10463 10466 10466 10465
3157.3826 10462 10460 10459 10459 10459 10459 10461 10464 10469 10474 10478
3162.6858 10480 10478 10476 10473 10471 10472 10474 10477 10479 10481 10482
3167.9890 10482 10482 10482 10482 10481 10481 10480 10480 10480 10483 10486
3173.2922 10491 10495 10497 10497 10497 10495 10493 10491 10490 10489 10488
3178.5957 10486 10483 10479 10476 10475 10475 10477 10479 10480 10481 10481
3183.8989 10482 10483 10486 10489 10491 10491 10490 10486 10480 10474 10469
3189.2021 10467 10469 10475 10481 10484 10482 10477 10471 10467 10469 10475
3194.5054 10482 10488 10490 10488 10483 10480 10480 10483 10490 10497 10501
3199.8088 10503 10502 10499 10496 10494 10493 10493 10491 10490 10487 10486
3205.1121 10486 10488 10490 10493 10495 10495 10496 10496 10495 10495 10495
3210.4153 10496 10499 10503 10509 10514 10516 10515 10510 10504 10499 10497
3215.7185 10496 10497 10499 10499 10499 10499 10499 10499 10500 10502 10502
3221.0220 10500 10497 10494 10491 10490 10492 10496 10501 10505 10506 10504
3226.3252 10500 10497 10497 10500 10505 10511 10515 10515 10511 10503 10495
3231.6284 10488 10486 10488 10492 10496 10497 10497 10495 10494 10495 10497
3236.9316 10500 10502 10503 10503 10501 10498 10493 10489 10487 10487 10490
3242.2351 10493 10495 10494 10492 10489 10487 10487 10489 10491 10492 10493
3247.5383 10493 10492 10491 10490 10489 10488 10487 10486 10485 10484 10482
3252.8416 10481 10481 10482 10485 10488 10491 10492 10492 10490 10488 10485
3258.1448 10483 10483 10484 10488 10494 10500 10506 10508 10506 10500 10493
3263.4482 10487 10482 10479 10477 10477 10479 10482 10486 10491 10494 10494
3268.7515 10492 10487 10481 10477 10473 10471 10470 10469 10469 10469 10468
3274.0547 10467 10466 10464 10464 10464 10465 10467 10467 10466 10464 10463
3279.3579 10463 10465 10468 10470 10469 10466 10461 10455 10451 10451 10454
3284.6614 10461 10469 10476 10480 10481 10479 10475 10470 10465 10460 10455
3289.9646 10450 10445 10441 10441 10443 10450 10458 10466 10471 10472 10469
3295.2678 10465 10461 10458 10459 10461 10464 10465 10464 10461 10457 10453
3300.5710 10448 10444 10439 10435 10432 10432 10434 10437 10441 10445 10447
3305.8745 10447 10447 10446 10445 10445 10446 10449 10453 10457 10459 10458
3311.1777 10454 10448 10443 10441 10442 10443 10443 10440 10436 10432 10431
3316.4810 10433 10438 10442 10444 10442 10438 10433 10430 10431 10436 10443
3321.7842 10451 10456 10458 10457 10454 10451 10449 10447 10444 10439 10433
3327.0876 10427 10423 10422 10424 10427 10432 10436 10439 10441 10441 10440
3332.3909 10438 10436 10434 10433 10434 10434 10434 10434 10433 10431 10428
3337.6941 10425 10423 10422 10422 10423 10423 10423 10423 10424 10426 10430
3342.9973 10433 10435 10435 10431 10427 10423 10422 10423 10426 10430 10433
3348.3008 10433 10431 10426 10421 10417 10415 10414 10413 10412 10411 10411
3353.6040 10413 10415 10417 10418 10418 10417 10417 10419 10421 10422 10422
3358.9072 10419 10416 10413 10410 10407 10404 10399 10395 10391 10388 10388
3364.2104 10390 10393 10396 10401 10404 10408 10410 10410 10410 10409 10408
3369.5139 10408 10408 10409 10410 10410 10408 10404 10398 10392 10387 10384
3374.8171 10383 10384 10385 10387 10388 10390 10390 10389 10387 10383 10380
3380.1204 10376 10373 10370 10367 10365 10363 10362 10362 10364 10366 10367
3385.4236 10366 10365 10364 10364 10364 10365 10366 10365 10363 10357 10350
3390.7271 10343 10337 10335 10337 10344 10353 10360 10363 10363 10358 10353
3396.0303 10349 10346 10346 10347 10350 10354 10358 10361 10362 10358 10351
3401.3335 10341 10331 10324 10321 10323 10328 10333 10337 10338 10338 10336
3406.6367 10332 10329 10326 10325 10325 10328 10331 10334 10336 10336 10333
3411.9402 10329 10324 10319 10315 10314 10315 10318 10322 10325 10325 10321
3417.2434 10313 10305 10297 10293 10292 10294 10294 10293 10290 10287 10285
3422.5466 10284 10286 10288 10290 10290 10289 10288 10288 10288 10287 10286
3427.8499 10284 10281 10277 10275 10274 10275 10278 10281 10284 10284 10281
3433.1533 10276 10272 10268 10266 10267 10268 10270 10272 10273 10274 10274
3438.4565 10274 10274 10273 10272 10270 10265 10259 10252 10246 10243 10244
3443.7598 10248 10254 10259 10263 10266 10267 10266 10264 10261 10260 10261
3449.0630 10264 10269 10272 10272 10268 10260 10250 10240 10231 10224 10221
3454.3665 10221 10223 10226 10229 10230 10230 10227 10224 10219 10216 10215
3459.6697 10217 10220 10225 10230 10234 10236 10236 10236 10234 10231 10227
3464.9729 10223 10219 10215 10211 10208 10204 10203 10205 10210 10216 10221
3470.2761 10224 10225 10224 10222 10220 10217 10212 10206 10200 10196 10196
3475.5796 10199 10201 10201 10199 10195 10190 10187 10187 10189 10192 10196
3480.8828 10199 10200 10199 10197 10195 10193 10191 10189 10185 10180 10175
3486.1860 10169 10163 10157 10153 10152 10154 10160 10167 10174 10178 10178
3491.4893 10175 10170 10165 10160 10157 10154 10151 10147 10143 10137 10130
3496.7927 10124 10119 10117 10117 10118 10120 10121 10123 10125 10127 10129
3502.0959 10129 10127 10124 10121 10119 10117 10117 10116 10114 10110 10107
3507.3992 10104 10101 10098 10094 10089 10086 10085 10089 10095 10102 10106
3512.7024 10105 10100 10093 10087 10083 10081 10078 10074 10068 10060 10054
3518.0059 10052 10053 10058 10063 10067 10067 10064 10061 10061 10063 10067
3523.3091 10071 10071 10067 10058 10049 10040 10034 10031 10031 10033 10037
3528.6123 10040 10043 10043 10041 10036 10031 10025 10022 10022 10025 10028
3533.9155 10030 10031 10030 10029 10029 10030 10031 10029 10025 10017 10008
3539.2190 10000 9993 9990 9990 9992 9995 9998 9999 9999 9996 9991 9987 9983
3545.4863 9981 9981 9980 9978 9976 9975 9975 9977 9979 9981 9983 9983 9981
3551.7539 9978 9974 9969 9964 9960 9957 9955 9954 9954 9953 9951 9949 9948
3558.0215 9946 9944 9942 9941 9941 9943 9945 9946 9947 9946 9944 9941 9936
3564.2891 9931 9923 9915 9905 9897 9892 9892 9897 9906 9915 9923 9928 9930
3570.5566 9929 9927 9925 9923 9921 9918 9914 9909 9905 9903 9904 9908 9914
3576.8240 9919 9923 9924 9925 9925 9925 9923 9920 9916 9911 9908 9906 9904
3583.0916 9903 9902 9899 9895 9888 9880 9869 9857 9848 9843 9845 9850 9858
3589.3591 9863 9866 9867 9866 9864 9863 9861 9860 9857 9855 9852 9852 9851
3595.6267 9850 9846 9839 9832 9826 9824 9826 9830 9833 9832 9827 9820 9813
3601.8940 9810 9813 9820 9828 9833 9833 9827 9817 9805 9794 9787 9782 9780
3608.1616 9780 9780 9780 9780 9778 9774 9769 9763 9759 9756 9754 9753 9753
3614.4292 9754 9756 9758 9760 9760 9760 9759 9761 9766 9772 9774 9771 9764
3620.6968 9756 9749 9745 9745 9749 9754 9761 9766 9769 9769 9763 9753 9738
3626.9641 9720 9702 9694 9703 9730 9757 9769 9768 9761 9752 9742 9732 9723
3633.2317 9719 9720 9729 9741 9753 9760 9762 9759 9754 9750 9749 9752 9757
3639.4993 9761 9762 9761 9759 9757 9755 9755 9753 9750 9745 9740 9736 9734
3645.7668 9735 9741 9750 9757 9759 9753 9740 9723 9707 9700 9704 9715 9727
3652.0342 9736 9742 9745 9748 9750 9749 9743 9733 9718 9707 9702 9704 9710
3658.3018 9717 9726 9735 9743 9749 9752 9751 9748 9745 9741 9738 9734 9731
3664.5693 9727 9722 9718 9716 9716 9720 9726 9736 9746 9754 9757 9753 9746
3670.8369 9740 9737 9735 9735 9734 9732 9727 9717 9704 9697 9705 9721 9736
3677.1042 9746 9750 9748 9742 9735 9732 9733 9736 9738 9737 9732 9725 9719
3683.3718 9717 9720 9727 9734 9738 9737 9730 9718 9701 9686 9680 9682 9690
3689.6394 9698 9706 9716 9727 9739 9748 9753 9753 9750 9745 9739 9733 9728
3695.9070 9724 9721 9720 9720 9720 9722 9724 9726 9729 9733 9740 9749 9757
3702.1743 9763 9764 9760 9753 9746 9741 9739 9740 9742 9741 9737 9731 9723
3708.4419 9716 9711 9705 9698 9690 9684 9685 9698 9717 9735 9746 9750 9751
3714.7095 9751 9752 9753 9753 9749 9741 9731 9723 9722 9725 9732 9736 9737
3720.9771 9733 9727 9722 9720 9720 9718 9714 9708 9703 9701 9702 9706 9710
3727.2444 9713 9714 9715 9716 9717 9718 9719 9719 9719 9717 9713 9708 9703
3733.5120 9698 9695 9697 9703 9712 9720 9727 9733 9737 9741 9742 9741 9738
3739.7795 9733 9729 9728 9731 9735 9741 9746 9749 9748 9740 9728 9720 9716
3746.0471 9715 9715 9717 9722 9727 9732 9735 9735 9733 9733 9735 9739 9742
3752.3145 9743 9742 9741 9742 9746 9752 9760 9765 9766 9760 9747 9731 9714
3758.5820 9701 9697 9702 9714 9727 9737 9743 9748 9751 9753 9754 9753 9749
3764.8496 9743 9737 9735 9735 9736 9737 9735 9733 9731 9732 9736 9743 9748
3771.1172 9750 9750 9749 9747 9746 9744 9743 9743 9743 9745 9747 9750 9751
3777.3845 9751 9749 9746 9743 9742 9744 9748 9751 9754 9755 9753 9750 9747
3783.6521 9744 9743 9746 9751 9757 9761 9764 9765 9765 9765 9767 9768 9770
3789.9197 9769 9767 9764 9760 9758 9759 9761 9763 9765 9765 9763 9760 9757
3796.1873 9754 9752 9752 9754 9756 9758 9758 9754 9745 9730 9716 9712 9720
3802.4546 9733 9744 9751 9753 9751 9747 9742 9740 9743 9750 9758 9764 9767
3808.7222 9769 9769 9768 9767 9764 9761 9758 9757 9756 9757 9757 9756 9750
3814.9897 9743 9737 9738 9746 9754 9759 9757 9750 9740 9730 9724 9729 9744
3821.2573 9759 9766 9766 9763 9760 9759 9760 9763 9765 9767 9765 9761 9756
3827.5247 9752 9750 9749 9749 9748 9745 9742 9740 9742 9745 9747 9747 9744
3833.7922 9740 9738 9740 9745 9751 9758 9765 9771 9775 9774 9768 9757 9746
3840.0598 9737 9734 9736 9739 9742 9742 9741 9741 9743 9747 9751 9755 9759
3846.3274 9762 9765 9767 9767 9764 9758 9750 9741 9733 9727 9725 9723 9722
3852.5947 9720 9718 9719 9724 9730 9736 9742 9748 9754 9760 9764 9765 9765
3858.8623 9763 9761 9758 9754 9749 9745 9742 9742 9745 9750 9756 9761 9764
3865.1299 9764 9763 9762 9762 9761 9759 9756 9751 9746 9744 9746 9749 9752
3871.3975 9752 9749 9744 9739 9735 9736 9743 9752 9761 9767 9772 9776 9778
3877.6648 9779 9777 9774 9770 9767 9766 9766 9766 9764 9761 9759 9757 9756
3883.9324 9755 9754 9752 9752 9755 9761 9767 9772 9775 9777 9778 9776 9773
3890.2000 9766 9757 9749 9743 9743 9746 9752 9759 9766 9771 9775 9776 9774
3896.4675 9772 9768 9765 9764 9763 9764 9763 9759 9754 9747 9743 9743 9748
3902.7349 9754 9758 9757 9753 9747 9744 9744 9747 9751 9756 9762 9768 9774
3909.0024 9780 9784 9787 9787 9786 9783 9780 9777 9772 9766 9758 9750 9742
3915.2700 9736 9733 9735 9742 9751 9761 9769 9775 9778 9780 9782 9783 9783
3921.5376 9783 9781 9776 9769 9759 9751 9747 9750 9758 9768 9775 9779 9779
3927.8049 9775 9771 9768 9765 9764 9763 9763 9763 9763 9765 9767 9768 9769
3934.0725 9770 9771 9773 9775 9777 9777 9777 9775 9773 9772 9770 9769 9767
3940.3401 9764 9760 9755 9753 9755 9761 9770 9779 9787 9792 9794 9793 9787
3946.6077 9778 9769 9761 9757 9758 9764 9772 9778 9782 9781 9779 9776 9776
3952.8750 9777 9779 9781 9783 9783 9783 9784 9786 9786 9786 9784 9782 9780
3959.1426 9779 9781 9783 9786 9787 9788 9787 9786 9787 9788 9791 9795 9798
3965.4102 9799 9798 9794 9789 9783 9777 9771 9767 9765 9765 9766 9768 9771
3971.6777 9773 9775 9777 9780 9783 9785 9785 9782 9779 9775 9774 9775 9778
3977.9451 9782 9786 9789 9791 9792 9792 9792 9791 9788 9784 9781 9778 9776
3984.2126 9777 9778 9780 9780 9778 9776 9773 9770 9769 9769 9771 9774 9778
3990.4802 9782 9786 9788 9789 9789 9789 9789 9788 9787 9786 9785 9785 9786
3996.7478 9786 9786 9783 9779 9774 9769 9766 9765
##END= 
