##TITLE= INC214
##JCAMP-DX= 4.24
##DATA TYPE= INFRARED SPECTRUM
##ORIGIN= JASCO
##OWNER= 
##DATE= 22/04/14
##TIME= 12:11:25
##SPECTROMETER/DATA SYSTEM= 
##RESOLUTION= 
##DELTAX=   0.48211674
##XUNITS= 1/CM
##YUNITS= TRANSMITTANCE
##XFACTOR= 1.00000
##YFACTOR= 0.0001
##FIRSTX=   599.7532
##LASTX=  4000.1226
##NPOINTS=     7054
##FIRSTY=      0.83819
##MAXY=      1.28796
##MINY=      0.53182
##XYDATA= (X++(Y..Y))
599.7532 8382 8360 8332 8295 8248 8192 8126 8053 7979 7915 7874 7863 7883 7926
606.5029 7980 8034 8077 8103 8105 8076 8012 7917 7800 7675 7554 7438 7326 7215
613.2525 7112 7027 6973 6953 6963 6988 7015 7035 7048 7056 7061 7058 7042 7009
620.0021 6964 6920 6891 6891 6924 6986 7070 7172 7296 7442 7609 7786 7954 8099
626.7518 8216 8310 8390 8463 8527 8576 8603 8605 8589 8564 8537 8514 8493 8473
633.5014 8452 8430 8410 8393 8379 8366 8351 8333 8313 8290 8268 8252 8246 8255
640.2510 8275 8295 8301 8281 8240 8192 8159 8154 8177 8211 8232 8227 8197 8158
647.0007 8130 8126 8143 8166 8173 8152 8104 8041 7979 7929 7897 7882 7885 7908
653.7503 7949 7999 8038 8042 7994 7896 7771 7648 7550 7482 7425 7353 7246 7106
660.4999 6950 6802 6680 6590 6529 6497 6501 6550 6648 6785 6940 7090 7219 7319
667.2496 7390 7470 7658 7942 8154 8248 8243 8150 7982 7771 7574 7455 7460 7591
673.9992 7808 8048 8260 8426 8566 8720 8920 9172 9445 9681 9822 9836 9728 9537
680.7488 9324 9156 9102 9221 9544 10046 10606 11022 11117 10875 10435 9968
686.5342 9588 9340 9222 9209 9274 9389 9526 9651 9735 9776 9812 9904 10093
692.8018 10362 10630 10792 10778 10602 10340 10079 9871 9729 9651 9633 9673
698.5872 9765 9884 9987 10033 10005 9922 9824 9744 9692 9654 9613 9559 9499
704.8547 9450 9418 9397 9373 9331 9268 9188 9105 9027 8955 8887 8819 8750 8683
711.6043 8622 8570 8530 8506 8502 8517 8551 8593 8630 8651 8651 8634 8615 8605
718.3539 8613 8634 8657 8671 8670 8655 8637 8625 8621 8624 8628 8631 8632 8633
725.1036 8637 8644 8652 8654 8643 8617 8579 8537 8504 8486 8485 8494 8505 8511
731.8532 8512 8511 8511 8511 8509 8500 8485 8463 8436 8405 8368 8325 8276 8225
738.6028 8176 8131 8090 8051 8013 7979 7949 7924 7899 7869 7829 7779 7721 7660
745.3525 7600 7542 7489 7444 7416 7415 7449 7527 7650 7814 8010 8225 8445 8654
752.1021 8839 8990 9104 9187 9245 9286 9316 9338 9354 9364 9370 9367 9352 9321
758.8517 9274 9219 9166 9121 9088 9062 9036 8999 8946 8875 8790 8697 8600 8501
765.6014 8402 8302 8201 8099 7997 7894 7788 7674 7549 7412 7267 7119 6977 6847
772.3510 6731 6628 6542 6477 6442 6449 6507 6619 6784 6992 7226 7471 7710 7931
779.1006 8129 8303 8456 8591 8708 8808 8889 8953 9000 9033 9056 9073 9088 9104
785.8503 9121 9138 9154 9164 9169 9169 9169 9170 9175 9181 9187 9191 9194 9200
792.5999 9209 9220 9231 9238 9238 9234 9228 9224 9224 9228 9235 9245 9256 9270
799.3495 9283 9295 9304 9306 9303 9300 9301 9314 9339 9376 9417 9456 9486 9509
806.0992 9528 9546 9564 9579 9585 9576 9549 9505 9449 9388 9327 9270 9222 9183
812.8488 9153 9131 9112 9094 9074 9049 9021 8990 8959 8930 8903 8880 8858 8835
819.5984 8810 8779 8742 8700 8656 8611 8565 8519 8471 8421 8366 8308 8244 8174
826.3481 8096 8018 7948 7898 7880 7899 7953 8034 8131 8236 8340 8436 8520 8589
833.0977 8640 8674 8692 8695 8684 8660 8626 8585 8540 8493 8443 8392 8339 8287
839.8474 8241 8203 8176 8161 8158 8167 8187 8215 8250 8287 8324 8357 8386 8412
846.5970 8437 8464 8491 8516 8535 8544 8538 8513 8467 8398 8306 8191 8055 7902
853.3466 7738 7570 7401 7237 7082 6942 6827 6746 6708 6719 6778 6880 7016 7176
860.0963 7350 7527 7699 7861 8007 8133 8237 8321 8386 8436 8477 8511 8540 8562
866.8459 8575 8578 8570 8555 8537 8521 8508 8499 8493 8486 8476 8463 8446 8427
873.5955 8406 8385 8363 8340 8312 8279 8241 8197 8152 8105 8057 8007 7955 7901
880.3452 7844 7787 7730 7670 7605 7533 7451 7363 7271 7179 7088 6998 6908 6817
887.0948 6724 6631 6543 6465 6405 6371 6370 6408 6488 6611 6775 6973 7198 7440
893.8444 7689 7936 8173 8395 8597 8776 8927 9048 9140 9208 9256 9291 9318 9336
900.5941 9348 9352 9350 9342 9331 9317 9303 9290 9279 9271 9267 9268 9272 9278
907.3437 9284 9290 9296 9304 9314 9325 9338 9351 9366 9385 9409 9441 9476 9512
914.0933 9542 9564 9576 9579 9574 9561 9537 9505 9463 9417 9367 9316 9264 9209
920.8430 9150 9086 9018 8949 8881 8818 8759 8705 8655 8608 8566 8529 8498 8474
927.5926 8456 8443 8435 8431 8430 8430 8432 8433 8433 8432 8429 8425 8420 8414
934.3422 8407 8398 8389 8379 8369 8359 8350 8341 8332 8324 8313 8300 8284 8265
941.0919 8244 8224 8205 8188 8170 8149 8126 8101 8076 8053 8032 8012 7991 7967
947.8415 7941 7911 7881 7852 7824 7797 7769 7741 7710 7678 7645 7613 7582 7552
954.5911 7520 7485 7448 7408 7368 7327 7283 7236 7185 7131 7075 7019 6964 6910
961.3408 6854 6798 6739 6678 6615 6550 6485 6419 6356 6298 6249 6211 6185 6174
968.0904 6181 6208 6258 6331 6423 6531 6650 6776 6906 7036 7163 7281 7385 7471
974.8400 7540 7593 7632 7660 7676 7678 7668 7647 7619 7586 7552 7518 7484 7447
981.5897 7408 7363 7313 7256 7194 7127 7057 6984 6912 6841 6775 6718 6673 6646
988.3393 6638 6647 6671 6704 6742 6776 6803 6818 6819 6804 6776 6735 6683 6620
995.0889 6547 6464 6372 6276 6177 6080 5987 5900 5821 5753 5696 5653 5625 5615
1001.8386 5625 5653 5701 5766 5845 5936 6035 6138 6241 6337 6422 6493 6551
1008.1061 6596 6631 6658 6676 6686 6684 6670 6646 6611 6566 6514 6453 6386
1014.3736 6313 6237 6161 6091 6033 5990 5967 5965 5983 6021 6075 6145 6225
1020.6411 6311 6394 6468 6523 6554 6557 6532 6479 6400 6299 6181 6053 5923
1026.9087 5801 5695 5613 5559 5535 5539 5570 5621 5689 5767 5852 5940 6029
1033.1761 6119 6210 6303 6397 6490 6579 6661 6729 6776 6798 6791 6754 6690
1039.4437 6603 6501 6394 6292 6203 6138 6103 6101 6135 6202 6301 6427 6573
1045.7112 6734 6903 7074 7240 7397 7538 7658 7754 7824 7869 7893 7899 7894
1051.9788 7883 7873 7870 7880 7908 7957 8029 8124 8238 8368 8508 8653 8799
1058.2462 8940 9073 9195 9305 9403 9491 9569 9641 9706 9765 9818 9864 9903
1064.5138 9934 9958 9973 9978 9973 9956 9924 9876 9814 9741 9663 9585 9511
1070.7813 9441 9371 9296 9211 9115 9006 8887 8758 8618 8466 8299 8117 7925
1077.0488 7727 7531 7343 7169 7009 6864 6734 6619 6518 6430 6355 6291 6237
1083.3163 6192 6156 6124 6094 6059 6015 5960 5894 5820 5740 5657 5574 5495
1089.5839 5424 5368 5331 5318 5329 5364 5421 5498 5594 5706 5831 5964 6099
1095.8513 6232 6358 6476 6586 6690 6792 6894 6999 7109 7226 7352 7491 7644
1102.1189 7813 7997 8191 8392 8596 8801 9007 9215 9424 9631 9832 10019 10188
1108.3864 10332 10447 10532 10586 10612 10613 10594 10557 10503 10431 10341
1113.6897 10232 10104 9960 9802 9635 9465 9300 9147 9012 8902 8818 8757 8716
1119.9572 8687 8664 8643 8620 8594 8565 8538 8515 8502 8502 8516 8543 8580
1126.2247 8621 8662 8696 8720 8730 8724 8703 8669 8626 8576 8524 8472 8423
1132.4922 8376 8333 8292 8252 8215 8179 8147 8119 8096 8081 8072 8069 8073
1138.7598 8084 8100 8124 8154 8189 8228 8265 8296 8317 8327 8327 8323 8322
1145.0272 8331 8356 8400 8462 8538 8623 8710 8796 8877 8952 9022 9084 9139
1151.2948 9184 9220 9248 9270 9289 9306 9320 9329 9332 9328 9319 9305 9288
1157.5623 9267 9238 9201 9154 9100 9040 8977 8913 8850 8791 8738 8698 8674
1163.8298 8672 8693 8738 8803 8883 8973 9067 9160 9249 9334 9413 9486 9554
1170.0973 9614 9666 9711 9748 9779 9807 9832 9855 9876 9895 9909 9919 9925
1176.3649 9929 9933 9939 9949 9960 9972 9982 9989 9993 9994 9994 9992 9988
1182.6323 9981 9972 9959 9943 9923 9898 9869 9836 9801 9768 9740 9724 9722
1188.8999 9736 9764 9805 9854 9908 9964 10020 10071 10117 10156 10187 10214
1194.6853 10237 10258 10279 10298 10316 10331 10344 10355 10367 10378 10388
1199.9885 10398 10407 10415 10423 10430 10437 10444 10450 10457 10463 10469
1205.2919 10475 10482 10488 10494 10498 10499 10498 10495 10493 10492 10494
1210.5951 10497 10498 10496 10491 10484 10475 10465 10456 10445 10432 10418
1215.8984 10403 10386 10368 10349 10329 10309 10287 10263 10235 10201 10160
1221.2017 10113 10059 10000 9937 9869 9797 9724 9653 9590 9541 9508 9494 9497
1227.4692 9514 9541 9574 9610 9648 9685 9718 9747 9769 9782 9786 9782 9771
1233.7367 9755 9733 9706 9675 9640 9601 9557 9509 9456 9396 9332 9265 9196
1240.0043 9129 9065 9008 8959 8920 8894 8883 8887 8906 8937 8978 9025 9075
1246.2717 9124 9173 9218 9260 9299 9332 9360 9381 9395 9401 9402 9398 9395
1252.5393 9395 9404 9423 9453 9493 9540 9589 9637 9683 9723 9757 9784 9805
1258.8068 9821 9834 9846 9858 9872 9884 9895 9902 9904 9902 9896 9888 9880
1265.0743 9875 9874 9879 9892 9910 9931 9954 9977 10002 10034 10074 10122
1270.8597 10175 10228 10274 10309 10330 10338 10336 10327 10314 10301 10292
1276.1630 10289 10296 10313 10343 10383 10430 10479 10526 10567 10601 10628
1281.4663 10646 10657 10659 10648 10625 10588 10539 10481 10417 10350 10281
1286.7695 10213 10147 10084 10027 9978 9937 9906 9881 9860 9839 9813 9780 9740
1293.0371 9697 9654 9612 9574 9538 9502 9464 9422 9373 9318 9256 9189 9118
1299.3046 9046 8976 8912 8857 8816 8793 8790 8808 8849 8912 8995 9096 9211
1305.5721 9335 9463 9591 9715 9835 9949 10056 10152 10238 10313 10376 10430
1311.3575 10475 10512 10542 10564 10578 10584 10583 10575 10563 10546 10527
1316.6608 10505 10482 10459 10440 10426 10422 10429 10445 10471 10504 10542
1321.9641 10586 10633 10682 10731 10779 10824 10865 10902 10933 10959 10980
1327.2673 10996 11009 11018 11025 11029 11031 11031 11029 11026 11022 11019
1332.5707 11016 11014 11012 11009 11004 10997 10986 10972 10954 10931 10906
1337.8739 10878 10845 10806 10758 10699 10632 10559 10482 10401 10314 10220
1343.1772 10117 10007 9892 9772 9647 9517 9384 9254 9131 9025 8941 8887 8865
1349.4447 8875 8910 8962 9020 9072 9112 9132 9133 9118 9092 9064 9045 9041
1355.7123 9055 9088 9137 9198 9264 9330 9388 9436 9470 9490 9497 9493 9482
1361.9797 9468 9454 9445 9442 9444 9453 9470 9493 9523 9556 9589 9616 9635
1368.2473 9643 9639 9621 9589 9546 9494 9440 9390 9352 9335 9347 9396 9484
1374.5148 9598 9720 9833 9933 10024 10108 10189 10266 10334 10389 10431 10460
1380.3002 10478 10487 10493 10497 10505 10519 10542 10576 10618 10664 10714
1385.6035 10766 10827 10898 10980 11063 11133 11184 11221 11250 11278 11305
1390.9067 11328 11345 11354 11354 11349 11344 11343 11350 11363 11375 11381
1396.2101 11378 11369 11359 11349 11340 11329 11315 11297 11278 11257 11235
1401.5133 11211 11185 11157 11129 11102 11077 11056 11037 11021 11005 10987
1406.8167 10968 10947 10927 10908 10890 10875 10861 10846 10832 10817 10805
1412.1199 10795 10788 10781 10774 10766 10754 10741 10727 10712 10698 10684
1417.4232 10667 10648 10622 10588 10546 10502 10459 10418 10379 10340 10303
1422.7264 10268 10236 10203 10163 10112 10049 9974 9895 9818 9753 9710 9693
1428.5118 9705 9744 9801 9862 9911 9942 9957 9963 9962 9958 9949 9938 9925
1434.7794 9913 9904 9900 9902 9905 9905 9901 9894 9886 9879 9873 9867 9862
1441.0469 9857 9854 9852 9850 9847 9844 9840 9836 9831 9827 9822 9818 9815
1447.3145 9814 9811 9805 9795 9781 9766 9751 9738 9725 9712 9698 9681 9663
1453.5819 9645 9628 9613 9600 9588 9578 9571 9568 9571 9575 9577 9577 9575
1459.8495 9572 9571 9571 9573 9576 9579 9580 9583 9588 9599 9619 9644 9665
1466.1169 9682 9695 9708 9723 9739 9755 9767 9775 9777 9776 9773 9770 9766
1472.3845 9759 9746 9728 9710 9691 9672 9651 9626 9598 9571 9549 9533 9522
1478.6520 9518 9520 9530 9547 9573 9605 9640 9675 9708 9740 9771 9801 9830
1484.9196 9857 9881 9903 9924 9947 9968 9988 10005 10022 10045 10075 10109
1490.7050 10138 10155 10166 10174 10182 10191 10199 10208 10216 10226 10237
1496.0082 10248 10259 10266 10272 10277 10282 10288 10293 10296 10299 10302
1501.3115 10307 10313 10321 10330 10338 10345 10351 10357 10363 10369 10375
1506.6147 10381 10386 10393 10402 10411 10420 10429 10436 10443 10451 10461
1511.9181 10472 10483 10494 10503 10511 10518 10525 10534 10545 10561 10581
1517.2213 10599 10611 10618 10622 10626 10629 10634 10643 10659 10681 10701
1522.5247 10715 10726 10735 10744 10756 10772 10791 10811 10829 10846 10862
1527.8279 10878 10892 10903 10911 10915 10918 10920 10922 10926 10932 10943
1533.1312 10959 10976 10988 10993 10995 10995 10996 10997 10998 10999 11002
1538.4344 11010 11030 11065 11100 11120 11131 11140 11150 11160 11168 11176
1543.7378 11190 11212 11242 11274 11301 11317 11325 11328 11330 11333 11339
1549.0410 11350 11368 11390 11408 11419 11422 11422 11422 11429 11449 11484
1554.3444 11523 11550 11559 11555 11547 11539 11539 11558 11628 11776 11914
1559.6476 11957 11957 11952 11947 11944 11943 11946 11956 11977 12011 12057
1564.9509 12108 12151 12178 12190 12191 12189 12190 12207 12254 12333 12414
1570.2542 12464 12482 12485 12485 12489 12495 12500 12499 12495 12494 12514
1575.5575 12578 12687 12790 12838 12840 12824 12810 12804 12807 12817 12831
1580.8607 12844 12856 12866 12873 12878 12880 12877 12869 12855 12837 12814
1586.1641 12788 12759 12728 12694 12657 12617 12574 12531 12487 12442 12397
1591.4674 12350 12304 12259 12215 12172 12131 12091 12054 12018 11985 11953
1596.7706 11920 11886 11850 11813 11776 11740 11705 11671 11640 11610 11583
1602.0740 11557 11531 11506 11481 11456 11430 11405 11380 11356 11334 11313
1607.3772 11292 11271 11248 11223 11197 11170 11144 11119 11096 11074 11052
1612.6805 11029 11005 10980 10952 10925 10898 10872 10848 10828 10810 10792
1617.9838 10771 10748 10722 10694 10666 10638 10612 10588 10566 10543 10517
1623.2871 10490 10464 10442 10423 10406 10388 10369 10347 10324 10299 10276
1628.5903 10256 10239 10224 10208 10190 10171 10149 10127 10105 10086 10067
1633.8937 10049 10030 10009 9989 9976 9970 9966 9961 9955 9948 9939 9931 9922
1640.1611 9914 9907 9900 9895 9891 9887 9885 9883 9881 9880 9878 9874 9867
1646.4287 9855 9844 9838 9837 9841 9844 9847 9847 9846 9842 9837 9832 9825
1652.6962 9822 9825 9831 9833 9832 9830 9828 9825 9823 9820 9819 9818 9818
1658.9637 9818 9816 9813 9809 9805 9802 9801 9804 9809 9813 9814 9813 9812
1665.2312 9810 9808 9807 9805 9804 9803 9805 9809 9815 9818 9817 9814 9812
1671.4988 9811 9811 9811 9811 9809 9808 9808 9809 9810 9812 9812 9811 9809
1677.7662 9808 9806 9805 9805 9805 9807 9807 9806 9803 9798 9791 9785 9785
1684.0338 9799 9818 9828 9830 9828 9827 9826 9826 9827 9830 9833 9838 9844
1690.3013 9850 9855 9859 9861 9863 9863 9863 9863 9862 9862 9865 9874 9888
1696.5688 9898 9903 9904 9901 9896 9888 9880 9878 9887 9898 9902 9901 9897
1702.8363 9892 9885 9880 9877 9877 9881 9885 9886 9883 9876 9867 9857 9848
1709.1039 9841 9836 9835 9836 9837 9837 9834 9830 9825 9818 9811 9802 9793
1715.3713 9783 9775 9769 9766 9770 9779 9788 9791 9789 9786 9782 9779 9777
1721.6389 9775 9774 9774 9776 9780 9783 9785 9786 9787 9787 9788 9788 9787
1727.9064 9785 9782 9779 9777 9776 9776 9776 9775 9772 9769 9768 9768 9771
1734.1740 9774 9774 9773 9772 9772 9772 9771 9769 9766 9763 9761 9761 9762
1740.4414 9763 9761 9758 9754 9751 9752 9756 9762 9767 9768 9765 9760 9755
1746.7090 9750 9747 9747 9749 9751 9753 9753 9752 9751 9750 9751 9753 9756
1752.9764 9758 9759 9759 9758 9757 9755 9752 9750 9749 9749 9750 9751 9750
1759.2440 9748 9745 9741 9739 9740 9746 9754 9758 9759 9757 9754 9750 9748
1765.5115 9746 9744 9742 9740 9739 9740 9742 9743 9741 9737 9731 9725 9724
1771.7791 9731 9743 9754 9758 9758 9755 9753 9751 9750 9749 9748 9748 9748
1778.0465 9749 9752 9755 9758 9759 9758 9755 9752 9750 9748 9746 9744 9743
1784.3141 9744 9746 9749 9752 9753 9753 9752 9750 9749 9747 9745 9742 9738
1790.5815 9736 9737 9742 9750 9757 9760 9759 9755 9751 9748 9746 9745 9744
1796.8491 9743 9741 9739 9738 9739 9742 9745 9747 9748 9747 9746 9746 9745
1803.1166 9745 9744 9742 9739 9737 9734 9734 9736 9740 9745 9749 9751 9750
1809.3842 9748 9744 9741 9737 9733 9730 9729 9728 9729 9730 9730 9730 9727
1815.6516 9724 9721 9718 9718 9720 9724 9728 9732 9735 9737 9740 9742 9744
1821.9192 9744 9741 9737 9731 9725 9722 9723 9728 9732 9733 9729 9721 9710
1828.1866 9700 9693 9695 9707 9722 9734 9738 9738 9736 9734 9734 9734 9734
1834.4542 9732 9729 9725 9722 9720 9719 9720 9723 9727 9732 9737 9739 9738
1840.7217 9732 9724 9716 9711 9709 9710 9716 9725 9733 9740 9744 9745 9742
1846.9893 9736 9727 9718 9711 9710 9714 9723 9732 9740 9744 9743 9738 9730
1853.2567 9722 9716 9711 9709 9709 9711 9713 9715 9716 9715 9713 9711 9709
1859.5243 9707 9704 9701 9699 9700 9702 9706 9710 9712 9712 9713 9716 9722
1865.7917 9732 9743 9753 9757 9755 9747 9738 9732 9731 9733 9736 9737 9735
1872.0593 9732 9729 9727 9728 9731 9735 9737 9738 9737 9733 9728 9722 9717
1878.3268 9714 9713 9712 9712 9711 9710 9711 9715 9721 9730 9739 9746 9748
1884.5944 9748 9746 9745 9744 9742 9737 9728 9717 9707 9702 9706 9717 9732
1890.8618 9745 9753 9754 9749 9738 9724 9709 9698 9695 9701 9712 9723 9729
1897.1294 9728 9720 9709 9700 9698 9703 9711 9718 9722 9721 9720 9720 9724
1903.3969 9730 9735 9738 9737 9735 9731 9726 9720 9712 9705 9701 9704 9712
1909.6644 9723 9733 9737 9738 9738 9739 9743 9747 9748 9746 9740 9734 9731
1915.9319 9732 9737 9743 9747 9746 9740 9733 9726 9722 9718 9713 9708 9706
1922.1995 9709 9720 9736 9753 9761 9758 9745 9727 9711 9704 9708 9721 9737
1928.4669 9753 9764 9767 9762 9750 9735 9721 9712 9710 9714 9717 9716 9709
1934.7345 9700 9692 9692 9698 9706 9712 9711 9704 9693 9684 9680 9682 9693
1941.0020 9710 9732 9755 9770 9770 9755 9732 9709 9695 9695 9710 9733 9752
1947.2695 9758 9749 9731 9713 9709 9723 9749 9773 9782 9766 9731 9689 9656
1953.5370 9642 9648 9668 9692 9715 9734 9750 9763 9770 9769 9758 9743 9729
1959.8046 9722 9722 9727 9731 9727 9713 9689 9659 9630 9610 9607 9623 9653
1966.0720 9684 9702 9699 9678 9654 9642 9650 9676 9708 9734 9750 9755 9757
1972.3396 9765 9776 9785 9783 9768 9746 9733 9740 9767 9805 9836 9848 9836
1978.6071 9808 9776 9753 9745 9753 9774 9799 9814 9809 9780 9732 9676 9630
1984.8746 9603 9599 9613 9640 9673 9708 9741 9766 9779 9777 9761 9737 9712
1991.1421 9694 9689 9697 9712 9724 9725 9714 9697 9679 9671 9677 9698 9733
1997.4097 9774 9812 9837 9842 9826 9796 9764 9740 9729 9728 9728 9723 9714
2003.6771 9706 9706 9712 9715 9707 9683 9654 9635 9641 9672 9714 9745 9755
2009.9447 9745 9724 9707 9697 9692 9689 9686 9684 9691 9710 9740 9776 9811
2016.2122 9837 9847 9839 9816 9788 9769 9768 9789 9823 9854 9865 9843 9793
2022.4797 9729 9674 9643 9643 9669 9707 9744 9773 9792 9803 9810 9813 9810
2028.7472 9800 9785 9768 9753 9742 9735 9731 9730 9732 9742 9760 9784 9807
2035.0148 9818 9808 9779 9739 9702 9681 9680 9693 9711 9725 9730 9727 9720
2041.2822 9709 9693 9668 9633 9596 9568 9561 9583 9628 9681 9724 9740 9725
2047.5498 9689 9651 9632 9639 9668 9702 9724 9728 9716 9697 9682 9675 9676
2053.8174 9687 9705 9730 9761 9793 9816 9824 9814 9791 9763 9739 9726 9721
2060.0847 9721 9719 9714 9705 9696 9687 9682 9679 9678 9681 9685 9691 9698
2066.3523 9707 9718 9730 9743 9752 9754 9747 9735 9721 9714 9716 9729 9749
2072.6199 9771 9787 9794 9787 9765 9731 9691 9654 9629 9624 9639 9669 9702
2078.8875 9728 9741 9739 9730 9721 9717 9721 9729 9735 9734 9725 9709 9690
2085.1548 9674 9664 9662 9667 9679 9695 9713 9728 9740 9747 9748 9744 9737
2091.4224 9727 9716 9705 9696 9691 9693 9699 9708 9716 9721 9722 9719 9713
2097.6899 9706 9699 9692 9685 9679 9673 9669 9665 9664 9666 9673 9686 9701
2103.9575 9712 9714 9702 9678 9650 9626 9614 9614 9625 9640 9655 9669 9679
2110.2249 9685 9686 9682 9676 9672 9671 9676 9684 9693 9700 9702 9696 9680
2116.4924 9657 9630 9609 9599 9605 9624 9648 9668 9678 9677 9670 9666 9669
2122.7600 9679 9691 9700 9699 9690 9674 9658 9644 9634 9627 9623 9623 9626
2129.0276 9632 9638 9642 9641 9636 9627 9616 9604 9592 9581 9575 9576 9586
2135.2949 9601 9615 9621 9617 9603 9585 9568 9558 9556 9562 9572 9583 9594
2141.5625 9604 9613 9624 9638 9652 9667 9678 9685 9687 9685 9679 9672 9663
2147.8301 9654 9648 9642 9637 9631 9624 9619 9621 9633 9650 9666 9671 9664
2154.0977 9650 9644 9659 9701 9762 9825 9869 9877 9849 9795 9734 9682 9650
2160.3650 9639 9648 9670 9699 9727 9747 9758 9762 9768 9778 9793 9807 9811
2166.6326 9800 9776 9744 9715 9698 9695 9705 9722 9737 9742 9737 9725 9712
2172.9001 9703 9703 9709 9717 9725 9730 9733 9737 9741 9744 9744 9737 9725
2179.1677 9710 9700 9697 9703 9712 9718 9719 9715 9713 9716 9726 9737 9742
2185.4351 9737 9725 9712 9702 9699 9700 9702 9707 9718 9737 9761 9780 9783
2191.7026 9764 9725 9678 9640 9621 9626 9649 9681 9712 9734 9742 9741 9734
2197.9702 9731 9736 9748 9760 9762 9751 9726 9696 9671 9658 9658 9666 9675
2204.2378 9679 9678 9673 9667 9661 9655 9649 9643 9640 9640 9643 9645 9644
2210.5051 9637 9627 9616 9609 9609 9614 9621 9626 9628 9630 9633 9642 9654
2216.7727 9666 9671 9664 9645 9617 9584 9552 9525 9508 9504 9516 9541 9575
2223.0403 9608 9635 9653 9661 9665 9667 9669 9671 9674 9676 9677 9676 9672
2229.3079 9663 9652 9640 9632 9628 9630 9637 9645 9651 9652 9648 9643 9642
2235.5752 9652 9675 9707 9738 9761 9769 9764 9751 9736 9723 9712 9700 9687
2241.8428 9672 9659 9650 9646 9646 9645 9643 9637 9630 9625 9625 9632 9645
2248.1104 9657 9665 9665 9659 9651 9647 9649 9655 9661 9664 9663 9658 9652
2254.3779 9648 9648 9650 9655 9658 9660 9658 9654 9651 9651 9654 9659 9663
2260.6453 9664 9663 9662 9663 9669 9678 9687 9690 9685 9672 9658 9649 9649
2266.9128 9658 9672 9683 9686 9679 9668 9659 9656 9659 9664 9666 9662 9653
2273.1804 9642 9631 9625 9623 9627 9634 9645 9657 9668 9675 9674 9666 9655
2279.4480 9644 9639 9641 9649 9656 9661 9660 9656 9653 9653 9656 9658 9658
2285.7153 9654 9651 9650 9656 9667 9680 9690 9693 9689 9679 9667 9657 9651
2291.9829 9650 9653 9660 9670 9680 9689 9696 9699 9696 9689 9678 9667 9657
2298.2505 9651 9650 9653 9658 9663 9667 9667 9666 9665 9668 9677 9689 9700
2304.5181 9706 9704 9695 9682 9670 9663 9660 9659 9657 9654 9650 9646 9644
2310.7854 9645 9648 9652 9658 9667 9680 9694 9706 9711 9709 9701 9691 9684
2317.0530 9681 9682 9683 9682 9678 9673 9672 9676 9685 9695 9700 9699 9693
2323.3206 9685 9680 9681 9686 9694 9700 9702 9700 9695 9691 9691 9696 9706
2329.5881 9719 9730 9736 9734 9727 9717 9709 9707 9709 9715 9721 9725 9724
2335.8555 9716 9702 9684 9666 9654 9651 9655 9664 9674 9679 9679 9675 9670
2342.1230 9666 9665 9668 9673 9678 9682 9684 9681 9677 9672 9668 9665 9663
2348.3906 9661 9660 9660 9661 9664 9667 9668 9666 9661 9656 9653 9655 9659
2354.6582 9664 9668 9668 9664 9654 9641 9629 9621 9623 9632 9642 9648 9646
2360.9255 9638 9632 9634 9642 9653 9658 9655 9645 9632 9621 9614 9613 9616
2367.1931 9624 9637 9653 9669 9681 9687 9686 9679 9671 9664 9660 9660 9662
2373.4607 9664 9663 9660 9654 9649 9646 9645 9648 9651 9654 9656 9657 9658
2379.7283 9659 9659 9657 9652 9645 9637 9631 9628 9626 9627 9627 9627 9627
2385.9956 9626 9624 9624 9624 9625 9627 9630 9633 9634 9634 9633 9631 9630
2392.2632 9631 9633 9635 9635 9634 9630 9627 9626 9626 9628 9631 9634 9636
2398.5308 9636 9636 9634 9631 9628 9624 9621 9618 9615 9612 9608 9604 9602
2404.7983 9601 9602 9606 9611 9617 9622 9625 9626 9627 9628 9631 9634 9636
2411.0657 9635 9632 9627 9622 9620 9622 9625 9628 9629 9626 9621 9615 9611
2417.3333 9610 9612 9616 9622 9627 9631 9632 9631 9629 9626 9624 9623 9623
2423.6008 9622 9621 9620 9619 9619 9619 9620 9621 9620 9619 9616 9614 9613
2429.8684 9613 9615 9617 9619 9619 9619 9618 9618 9619 9622 9625 9628 9629
2436.1357 9629 9628 9627 9626 9625 9622 9617 9610 9603 9598 9597 9600 9604
2442.4033 9608 9609 9609 9607 9605 9603 9602 9602 9600 9597 9595 9593 9594
2448.6709 9597 9604 9612 9619 9623 9624 9621 9616 9609 9602 9597 9595 9595
2454.9385 9598 9600 9601 9601 9602 9603 9605 9608 9610 9610 9608 9606 9603
2461.2058 9600 9598 9598 9600 9602 9605 9606 9605 9602 9599 9597 9600 9605
2467.4734 9610 9613 9611 9605 9598 9593 9591 9592 9594 9597 9598 9599 9599
2473.7410 9599 9600 9599 9598 9597 9596 9596 9595 9595 9594 9593 9593 9595
2480.0085 9598 9600 9601 9599 9596 9593 9589 9588 9588 9589 9590 9592 9593
2486.2759 9594 9594 9595 9595 9594 9593 9592 9592 9592 9594 9596 9596 9594
2492.5435 9590 9584 9578 9573 9570 9570 9571 9573 9576 9580 9584 9589 9593
2498.8110 9596 9598 9598 9595 9590 9584 9578 9574 9572 9571 9571 9571 9569
2505.0786 9568 9567 9566 9565 9563 9562 9563 9567 9572 9577 9578 9574 9567
2511.3459 9560 9555 9554 9557 9560 9564 9567 9568 9568 9566 9563 9559 9556
2517.6135 9555 9556 9558 9560 9560 9559 9555 9551 9547 9544 9542 9542 9542
2523.8811 9543 9544 9544 9546 9547 9549 9552 9554 9555 9556 9555 9555 9554
2530.1487 9552 9550 9547 9545 9543 9543 9545 9547 9548 9548 9545 9542 9538
2536.4160 9536 9536 9538 9542 9545 9548 9549 9549 9549 9550 9551 9552 9553
2542.6836 9551 9547 9542 9537 9535 9537 9541 9547 9551 9552 9551 9549 9548
2548.9512 9548 9549 9551 9551 9550 9545 9538 9530 9525 9522 9524 9528 9531
2555.2188 9533 9533 9531 9528 9528 9529 9531 9535 9538 9539 9538 9536 9534
2561.4861 9532 9532 9532 9533 9532 9529 9525 9521 9520 9522 9527 9532 9534
2567.7537 9534 9531 9529 9530 9535 9541 9546 9548 9547 9542 9537 9531 9528
2574.0212 9525 9524 9524 9524 9524 9524 9524 9524 9525 9526 9528 9531 9534
2580.2888 9538 9541 9544 9547 9548 9548 9547 9545 9544 9544 9545 9547 9547
2586.5564 9545 9540 9535 9530 9529 9533 9540 9549 9556 9559 9557 9551 9545
2592.8237 9541 9540 9542 9546 9549 9551 9551 9550 9550 9552 9554 9557 9559
2599.0913 9561 9563 9563 9563 9562 9561 9558 9554 9550 9545 9541 9539 9538
2605.3589 9538 9538 9538 9538 9538 9540 9542 9546 9551 9554 9556 9555 9550
2611.6265 9544 9539 9536 9537 9541 9546 9550 9551 9549 9546 9542 9539 9539
2617.8938 9540 9542 9544 9545 9545 9545 9547 9549 9552 9556 9558 9561 9563
2624.1614 9565 9567 9567 9565 9561 9557 9553 9550 9549 9549 9550 9551 9553
2630.4290 9555 9557 9557 9556 9553 9550 9547 9544 9543 9542 9542 9542 9541
2636.6965 9540 9539 9538 9538 9538 9540 9541 9542 9542 9539 9536 9534 9533
2642.9639 9533 9534 9534 9533 9532 9530 9529 9529 9529 9530 9531 9531 9532
2649.2314 9532 9533 9535 9536 9536 9536 9536 9535 9535 9536 9537 9537 9536
2655.4990 9534 9531 9528 9526 9525 9527 9530 9533 9535 9535 9533 9530 9527
2661.7666 9525 9524 9523 9523 9522 9521 9520 9519 9518 9517 9517 9518 9519
2668.0339 9519 9519 9517 9514 9511 9509 9507 9506 9506 9506 9507 9508 9510
2674.3015 9511 9512 9512 9511 9509 9508 9508 9508 9510 9511 9510 9508 9506
2680.5691 9505 9506 9507 9510 9511 9510 9508 9505 9502 9500 9500 9500 9500
2686.8367 9500 9499 9498 9499 9500 9502 9504 9506 9508 9508 9508 9509 9509
2693.1040 9508 9507 9505 9502 9498 9495 9491 9489 9486 9485 9485 9485 9486
2699.3716 9487 9488 9488 9488 9487 9485 9484 9483 9481 9480 9478 9475 9473
2705.6392 9471 9471 9471 9472 9472 9471 9470 9468 9467 9466 9467 9467 9467
2711.9067 9466 9464 9462 9459 9457 9454 9451 9448 9445 9443 9442 9441 9441
2718.1741 9440 9439 9438 9437 9437 9437 9439 9440 9440 9439 9438 9436 9434
2724.4417 9432 9432 9433 9436 9438 9441 9443 9444 9445 9446 9448 9449 9450
2730.7092 9451 9451 9452 9452 9453 9453 9453 9454 9454 9455 9455 9455 9455
2736.9768 9454 9452 9451 9450 9451 9452 9454 9456 9459 9461 9462 9463 9463
2743.2441 9461 9460 9459 9460 9462 9465 9467 9467 9465 9463 9460 9459 9460
2749.5117 9461 9462 9463 9464 9463 9463 9463 9464 9465 9466 9466 9467 9467
2755.7793 9468 9469 9470 9471 9474 9476 9479 9480 9481 9480 9478 9476 9474
2762.0469 9474 9474 9475 9475 9475 9474 9472 9471 9470 9469 9470 9471 9472
2768.3142 9472 9473 9473 9473 9473 9473 9473 9472 9471 9469 9467 9466 9466
2774.5818 9465 9465 9465 9465 9465 9465 9464 9463 9459 9455 9451 9449 9450
2780.8494 9453 9457 9461 9463 9462 9459 9455 9451 9448 9447 9446 9445 9445
2787.1169 9444 9444 9445 9446 9447 9448 9448 9447 9447 9446 9446 9446 9445
2793.3843 9444 9443 9440 9437 9433 9430 9429 9428 9429 9431 9434 9437 9439
2799.6519 9440 9439 9436 9431 9427 9424 9423 9423 9423 9424 9423 9422 9422
2805.9194 9421 9422 9422 9423 9424 9425 9425 9426 9427 9427 9429 9430 9430
2812.1870 9430 9428 9425 9421 9418 9416 9416 9416 9416 9415 9414 9411 9410
2818.4543 9410 9413 9416 9419 9421 9421 9419 9417 9415 9414 9416 9418 9420
2824.7219 9420 9418 9414 9410 9406 9403 9401 9399 9397 9396 9396 9396 9396
2830.9895 9395 9393 9390 9386 9382 9380 9379 9381 9383 9387 9389 9390 9390
2837.2571 9389 9387 9385 9383 9383 9383 9383 9382 9380 9377 9373 9369 9365
2843.5244 9363 9362 9363 9366 9371 9376 9381 9386 9389 9392 9392 9392 9391
2849.7920 9391 9391 9390 9387 9383 9378 9372 9368 9366 9367 9369 9371 9373
2856.0596 9373 9371 9369 9365 9363 9361 9359 9358 9357 9356 9354 9352 9351
2862.3271 9349 9346 9343 9341 9340 9339 9338 9337 9333 9328 9322 9316 9310
2868.5945 9306 9304 9302 9301 9301 9300 9299 9297 9295 9292 9289 9287 9285
2874.8621 9282 9279 9275 9271 9268 9266 9265 9264 9263 9262 9260 9258 9258
2881.1296 9259 9261 9263 9265 9266 9265 9263 9262 9262 9264 9267 9270 9272
2887.3972 9271 9269 9266 9264 9262 9261 9261 9261 9261 9259 9257 9253 9250
2893.6646 9247 9246 9245 9245 9242 9238 9233 9226 9220 9214 9209 9203 9196
2899.9321 9189 9181 9173 9165 9157 9150 9145 9143 9144 9148 9154 9162 9169
2906.1997 9176 9182 9187 9192 9198 9204 9211 9219 9225 9231 9235 9239 9244
2912.4673 9251 9259 9267 9273 9279 9283 9286 9288 9290 9292 9294 9296 9298
2918.7346 9300 9300 9299 9295 9289 9281 9272 9262 9250 9236 9220 9203 9187
2925.0022 9172 9159 9149 9141 9135 9129 9126 9126 9132 9142 9159 9181 9206
2931.2698 9234 9263 9292 9320 9347 9372 9393 9411 9426 9439 9451 9462 9473
2937.5374 9481 9485 9484 9477 9463 9446 9428 9413 9401 9396 9395 9399 9404
2943.8047 9410 9415 9418 9421 9423 9425 9428 9430 9430 9428 9424 9418 9412
2950.0723 9408 9404 9401 9397 9391 9384 9375 9365 9356 9346 9337 9329 9320
2956.3398 9312 9303 9293 9283 9273 9265 9259 9255 9251 9248 9246 9246 9248
2962.6074 9252 9259 9267 9275 9283 9291 9300 9307 9311 9310 9305 9299 9295
2968.8748 9297 9307 9324 9345 9369 9393 9415 9435 9453 9468 9479 9487 9493
2975.1423 9497 9501 9506 9512 9517 9522 9526 9529 9531 9531 9530 9529 9528
2981.4099 9526 9526 9526 9526 9527 9527 9528 9528 9529 9529 9528 9526 9523
2987.6775 9520 9518 9515 9513 9510 9506 9502 9499 9497 9497 9498 9498 9499
2993.9448 9499 9500 9500 9502 9502 9502 9502 9501 9499 9497 9495 9492 9490
3000.2124 9489 9487 9485 9481 9477 9472 9468 9466 9465 9465 9465 9465 9464
3006.4800 9466 9469 9474 9480 9487 9492 9495 9497 9498 9497 9496 9495 9492
3012.7476 9490 9489 9489 9490 9492 9492 9491 9489 9486 9484 9483 9482 9481
3019.0149 9477 9471 9463 9453 9444 9436 9431 9429 9429 9430 9430 9428 9424
3025.2825 9418 9410 9403 9397 9394 9392 9392 9395 9400 9406 9413 9419 9425
3031.5500 9428 9431 9432 9434 9435 9436 9437 9439 9440 9442 9442 9442 9440
3037.8176 9437 9434 9432 9432 9435 9439 9443 9447 9448 9446 9441 9436 9431
3044.0850 9426 9423 9421 9418 9414 9409 9403 9398 9395 9394 9396 9399 9403
3050.3525 9405 9405 9402 9397 9392 9388 9387 9388 9390 9392 9394 9397 9400
3056.6201 9403 9405 9405 9402 9397 9392 9387 9383 9379 9375 9370 9366 9362
3062.8877 9360 9360 9362 9365 9369 9372 9374 9375 9374 9372 9369 9365 9361
3069.1550 9356 9353 9349 9347 9345 9345 9346 9348 9348 9345 9339 9331 9325
3075.4226 9321 9321 9324 9329 9332 9332 9331 9328 9326 9325 9325 9325 9324
3081.6902 9321 9318 9315 9312 9312 9311 9310 9308 9304 9298 9292 9286 9282
3087.9578 9278 9276 9275 9274 9274 9275 9276 9277 9277 9276 9273 9270 9266
3094.2251 9265 9265 9268 9271 9274 9275 9273 9270 9267 9264 9262 9261 9258
3100.4927 9255 9253 9250 9248 9247 9244 9241 9236 9231 9226 9221 9217 9214
3106.7603 9213 9211 9210 9209 9208 9207 9207 9207 9206 9204 9201 9196 9190
3113.0278 9184 9180 9176 9175 9175 9176 9177 9177 9175 9172 9171 9170 9172
3119.2952 9174 9174 9171 9166 9159 9152 9146 9142 9138 9133 9128 9123 9119
3125.5627 9115 9113 9112 9113 9116 9120 9125 9127 9127 9124 9118 9111 9104
3131.8303 9096 9089 9080 9072 9065 9059 9054 9049 9044 9038 9033 9032 9035
3138.0979 9041 9050 9057 9060 9060 9055 9048 9040 9033 9028 9025 9024 9023
3144.3652 9020 9014 9008 9001 8995 8989 8984 8977 8968 8959 8951 8947 8947
3150.6328 8950 8956 8961 8965 8967 8968 8966 8964 8962 8959 8954 8948 8940
3156.9004 8930 8918 8906 8894 8886 8881 8879 8879 8878 8875 8869 8862 8856
3163.1680 8852 8850 8850 8850 8847 8844 8840 8839 8839 8841 8842 8840 8834
3169.4353 8826 8817 8808 8800 8792 8783 8774 8765 8756 8749 8743 8739 8737
3175.7029 8735 8732 8729 8725 8721 8718 8716 8715 8715 8715 8714 8711 8706
3181.9705 8701 8695 8691 8689 8688 8686 8683 8675 8665 8652 8639 8629 8621
3188.2380 8617 8614 8612 8607 8603 8598 8595 8594 8594 8593 8589 8582 8574
3194.5054 8567 8562 8559 8558 8555 8550 8543 8535 8529 8524 8520 8515 8509
3200.7729 8503 8498 8495 8493 8491 8489 8484 8479 8474 8469 8465 8461 8456
3207.0405 8450 8445 8439 8434 8429 8423 8417 8410 8402 8395 8389 8384 8380
3213.3081 8377 8376 8374 8371 8366 8359 8351 8342 8336 8332 8331 8332 8333
3219.5754 8335 8335 8334 8331 8328 8324 8319 8313 8306 8299 8292 8288 8285
3225.8430 8285 8285 8284 8283 8280 8278 8278 8277 8277 8276 8273 8269 8266
3232.1106 8264 8265 8267 8269 8272 8272 8272 8270 8267 8264 8260 8258 8258
3238.3782 8260 8264 8269 8273 8274 8272 8269 8265 8262 8262 8265 8271 8277
3244.6455 8284 8289 8294 8298 8304 8309 8315 8320 8324 8326 8327 8327 8326
3250.9131 8325 8322 8320 8318 8320 8325 8333 8343 8354 8364 8373 8380 8386
3257.1807 8390 8395 8398 8402 8406 8410 8413 8416 8418 8418 8419 8421 8425
3263.4482 8432 8441 8450 8458 8463 8465 8466 8466 8467 8469 8474 8479 8485
3269.7156 8490 8494 8497 8500 8503 8507 8512 8518 8524 8529 8533 8536 8538
3275.9832 8539 8539 8540 8542 8546 8552 8559 8567 8574 8580 8585 8589 8593
3282.2507 8596 8600 8603 8603 8602 8597 8592 8587 8584 8585 8588 8592 8595
3288.5183 8596 8594 8591 8588 8588 8590 8592 8594 8595 8594 8593 8592 8592
3294.7856 8593 8596 8598 8599 8599 8595 8591 8586 8581 8578 8575 8573 8570
3301.0532 8568 8567 8568 8571 8575 8578 8579 8576 8571 8565 8559 8555 8553
3307.3208 8554 8557 8561 8564 8567 8569 8569 8569 8568 8568 8567 8569 8572
3313.5884 8576 8582 8589 8595 8599 8601 8603 8605 8607 8612 8617 8624 8633
3319.8557 8641 8649 8655 8659 8660 8661 8662 8664 8668 8674 8681 8690 8699
3326.1233 8709 8721 8732 8744 8754 8764 8771 8776 8780 8783 8789 8796 8807
3332.3909 8820 8834 8848 8862 8875 8887 8898 8908 8916 8921 8923 8924 8925
3338.6584 8928 8935 8946 8960 8977 8992 9004 9012 9016 9020 9024 9030 9038
3344.9258 9046 9052 9056 9058 9060 9063 9067 9069 9069 9068 9066 9065 9068
3351.1934 9074 9082 9091 9097 9102 9104 9105 9105 9104 9105 9106 9108 9111
3357.4609 9115 9118 9120 9121 9122 9122 9124 9125 9128 9130 9133 9136 9139
3363.7285 9144 9151 9159 9167 9174 9179 9180 9179 9175 9170 9167 9168 9173
3369.9958 9182 9193 9206 9216 9223 9227 9229 9232 9235 9241 9249 9257 9264
3376.2634 9269 9273 9276 9280 9285 9290 9296 9303 9308 9313 9317 9320 9323
3382.5310 9326 9329 9333 9338 9343 9350 9356 9362 9367 9372 9376 9380 9384
3388.7986 9387 9390 9392 9394 9396 9401 9407 9413 9420 9424 9426 9425 9423
3395.0659 9420 9418 9416 9416 9417 9420 9426 9434 9443 9452 9462 9470 9476
3401.3335 9480 9482 9483 9481 9479 9476 9473 9471 9470 9469 9468 9466 9465
3407.6011 9464 9464 9465 9469 9473 9477 9480 9482 9482 9480 9478 9476 9476
3413.8687 9478 9483 9490 9496 9498 9494 9485 9474 9464 9457 9456 9458 9461
3420.1360 9464 9465 9463 9459 9455 9450 9444 9437 9430 9424 9418 9414 9412
3426.4036 9411 9409 9405 9398 9387 9374 9360 9347 9336 9326 9317 9309 9300
3432.6711 9291 9281 9271 9259 9247 9233 9219 9204 9190 9175 9161 9146 9130
3438.9387 9113 9093 9072 9050 9028 9007 8987 8967 8947 8924 8899 8872 8844
3445.2061 8817 8792 8769 8748 8728 8706 8681 8652 8622 8592 8565 8541 8520
3451.4736 8503 8487 8472 8456 8441 8426 8413 8403 8398 8396 8399 8405 8412
3457.7412 8422 8434 8450 8469 8494 8522 8554 8587 8620 8655 8690 8726 8762
3464.0088 8798 8833 8865 8897 8928 8960 8992 9026 9061 9097 9133 9168 9200
3470.2761 9226 9246 9261 9272 9284 9297 9312 9329 9347 9367 9386 9404 9419
3476.5437 9432 9441 9449 9457 9466 9477 9492 9507 9520 9532 9540 9547 9553
3482.8113 9558 9563 9568 9571 9573 9573 9573 9573 9576 9582 9591 9601 9609
3489.0789 9614 9615 9614 9614 9617 9624 9634 9645 9655 9662 9665 9665 9663
3495.3462 9659 9654 9652 9651 9652 9654 9656 9658 9659 9660 9660 9660 9660
3501.6138 9660 9662 9666 9670 9674 9678 9682 9686 9689 9690 9690 9686 9681
3507.8813 9675 9670 9668 9669 9674 9682 9691 9701 9710 9716 9720 9721 9720
3514.1489 9719 9717 9716 9715 9714 9713 9710 9705 9701 9699 9700 9704 9708
3520.4163 9712 9714 9714 9711 9708 9707 9707 9708 9711 9714 9717 9719 9720
3526.6838 9721 9722 9724 9727 9730 9731 9731 9730 9730 9730 9731 9733 9735
3532.9514 9737 9741 9746 9752 9758 9760 9758 9754 9748 9744 9743 9746 9751
3539.2190 9756 9759 9760 9759 9756 9753 9751 9749 9747 9745 9744 9746 9750
3545.4863 9754 9758 9759 9757 9756 9756 9758 9763 9768 9771 9771 9769 9764
3551.7539 9759 9757 9759 9764 9770 9776 9779 9779 9775 9771 9767 9764 9763
3558.0215 9763 9764 9763 9762 9763 9765 9769 9774 9778 9780 9779 9777 9776
3564.2891 9778 9781 9784 9783 9777 9765 9754 9749 9752 9758 9766 9772 9776
3570.5566 9778 9780 9782 9785 9788 9792 9795 9794 9790 9782 9774 9767 9764
3576.8240 9764 9768 9775 9781 9786 9786 9784 9780 9775 9773 9774 9779 9786
3583.0916 9794 9801 9804 9804 9802 9801 9802 9803 9804 9802 9797 9793 9790
3589.3591 9791 9793 9795 9797 9798 9797 9795 9792 9788 9784 9779 9776 9776
3595.6267 9778 9782 9785 9787 9786 9785 9784 9786 9792 9800 9808 9812 9810
3601.8940 9804 9794 9785 9778 9774 9773 9774 9776 9776 9775 9772 9769 9768
3608.1616 9772 9780 9789 9794 9794 9791 9785 9780 9778 9780 9785 9793 9801
3614.4292 9809 9816 9822 9826 9828 9827 9822 9813 9800 9786 9777 9775 9779
3620.6968 9786 9792 9794 9791 9787 9782 9781 9784 9791 9796 9796 9788 9773
3626.9641 9754 9739 9737 9758 9794 9819 9823 9815 9805 9796 9792 9793 9797
3633.2317 9803 9806 9806 9804 9801 9798 9794 9789 9783 9777 9771 9768 9770
3639.4993 9774 9781 9790 9798 9804 9809 9811 9812 9811 9810 9806 9800 9791
3645.7668 9779 9767 9757 9755 9759 9768 9779 9789 9796 9796 9792 9785 9781
3652.0342 9778 9777 9776 9774 9772 9769 9769 9775 9786 9799 9810 9815 9816
3658.3018 9815 9812 9809 9807 9806 9806 9807 9806 9804 9800 9796 9794 9793
3664.5693 9794 9796 9797 9797 9797 9797 9796 9796 9793 9789 9786 9787 9793
3670.8369 9802 9808 9808 9804 9797 9786 9773 9756 9740 9734 9743 9757 9768
3677.1042 9776 9779 9781 9782 9784 9788 9792 9797 9801 9803 9805 9807 9808
3683.3718 9810 9810 9808 9804 9799 9793 9787 9782 9780 9782 9789 9797 9805
3689.6394 9810 9813 9813 9813 9811 9810 9809 9808 9806 9802 9796 9789 9783
3695.9070 9781 9785 9794 9804 9812 9815 9811 9803 9794 9787 9784 9785 9788
3702.1743 9788 9785 9783 9782 9784 9787 9791 9793 9793 9791 9790 9790 9794
3708.4419 9799 9802 9801 9794 9782 9769 9762 9764 9772 9779 9782 9781 9778
3714.7095 9777 9777 9778 9779 9780 9781 9782 9786 9789 9790 9787 9782 9777
3720.9771 9774 9775 9781 9787 9790 9790 9787 9786 9786 9790 9798 9807 9813
3727.2444 9816 9814 9807 9799 9790 9785 9785 9791 9800 9807 9805 9794 9777
3733.5120 9761 9750 9749 9760 9777 9791 9799 9800 9799 9799 9799 9803 9808
3739.7795 9814 9819 9818 9810 9796 9776 9755 9734 9722 9731 9758 9780 9787
3746.0471 9784 9777 9770 9764 9763 9767 9775 9781 9783 9783 9784 9792 9806
3752.3145 9817 9820 9814 9803 9791 9778 9767 9761 9760 9763 9769 9775 9780
3758.5820 9783 9785 9787 9788 9789 9790 9792 9792 9790 9786 9777 9766 9755
3764.8496 9750 9753 9764 9775 9783 9786 9785 9782 9780 9782 9787 9793 9797
3771.1172 9798 9797 9794 9790 9786 9781 9777 9774 9771 9770 9770 9772 9775
3777.3845 9778 9780 9780 9777 9775 9773 9773 9773 9771 9768 9764 9759 9757
3783.6521 9759 9764 9773 9782 9789 9793 9793 9791 9786 9782 9779 9777 9775
3789.9197 9774 9772 9770 9769 9769 9770 9772 9772 9772 9770 9769 9767 9767
3796.1873 9769 9772 9776 9778 9777 9774 9770 9765 9760 9759 9763 9771 9777
3802.4546 9779 9777 9772 9765 9758 9754 9755 9762 9776 9792 9802 9804 9802
3808.7222 9795 9787 9779 9771 9767 9767 9769 9771 9771 9767 9761 9754 9748
3814.9897 9748 9753 9761 9766 9765 9761 9755 9749 9745 9744 9749 9758 9769
3821.2573 9774 9774 9771 9769 9767 9766 9764 9761 9758 9756 9755 9755 9757
3827.5247 9760 9762 9762 9761 9760 9759 9760 9763 9767 9769 9767 9763 9759
3833.7922 9757 9759 9765 9773 9779 9784 9787 9789 9786 9778 9768 9760 9757
3840.0598 9759 9766 9775 9782 9788 9793 9799 9806 9809 9809 9803 9796 9788
3846.3274 9782 9778 9778 9780 9782 9782 9780 9774 9766 9754 9738 9719 9698
3852.5947 9689 9705 9745 9784 9804 9808 9804 9796 9788 9782 9778 9774 9770
3858.8623 9765 9759 9755 9753 9756 9760 9763 9762 9757 9752 9749 9751 9758
3865.1299 9766 9771 9772 9771 9769 9768 9767 9768 9772 9778 9783 9784 9780
3871.3975 9772 9763 9755 9749 9746 9748 9752 9756 9758 9761 9763 9765 9764
3877.6648 9760 9752 9742 9733 9730 9736 9748 9759 9765 9765 9761 9756 9751
3883.9324 9748 9750 9756 9761 9762 9759 9754 9752 9752 9755 9757 9757 9755
3890.2000 9752 9751 9757 9768 9780 9790 9795 9796 9793 9787 9777 9766 9754
3896.4675 9744 9736 9732 9733 9739 9747 9753 9754 9753 9751 9750 9751 9753
3902.7349 9754 9754 9754 9754 9756 9759 9763 9767 9771 9773 9772 9770 9766
3909.0024 9763 9761 9761 9762 9762 9760 9757 9752 9749 9746 9745 9744 9743
3915.2700 9742 9743 9746 9751 9755 9758 9757 9754 9751 9748 9747 9749 9753
3921.5376 9758 9763 9766 9768 9768 9766 9763 9760 9758 9758 9759 9759 9758
3927.8049 9754 9747 9738 9730 9724 9722 9723 9728 9735 9744 9751 9755 9756
3934.0725 9755 9753 9752 9751 9752 9754 9758 9763 9767 9770 9771 9768 9761
3940.3401 9753 9744 9737 9735 9738 9747 9758 9768 9774 9775 9773 9768 9764
3946.6077 9762 9763 9765 9766 9766 9763 9758 9753 9748 9746 9745 9746 9749
3952.8750 9753 9756 9758 9758 9757 9756 9756 9757 9759 9761 9762 9763 9762
3959.1426 9762 9761 9760 9759 9759 9760 9762 9764 9766 9766 9765 9763 9759
3965.4102 9754 9749 9744 9741 9741 9746 9752 9759 9764 9765 9764 9761 9759
3971.6777 9759 9760 9762 9764 9766 9766 9765 9763 9760 9758 9757 9758 9761
3977.9451 9764 9766 9768 9768 9767 9765 9763 9761 9759 9757 9756 9755 9754
3984.2126 9754 9755 9759 9765 9770 9772 9771 9766 9759 9752 9748 9747 9749
3990.4802 9752 9755 9759 9762 9767 9771 9776 9779 9780 9777 9772 9766 9762
3996.7478 9759 9759 9759 9760 9761 9762 9763 9764
##END= 
