##TITLE= STDMETILPIDROSSIBENZOATO
##JCAMP-DX= 4.24
##DATA TYPE= INFRARED SPECTRUM
##ORIGIN= JASCO
##OWNER= 
##DATE= 22/03/30
##TIME= 18:13:50
##SPECTROMETER/DATA SYSTEM= 
##RESOLUTION= 
##DELTAX=   0.48211674
##XUNITS= 1/CM
##YUNITS= TRANSMITTANCE
##XFACTOR= 1.00000
##YFACTOR= 0.0001
##FIRSTX=   599.7532
##LASTX=  4000.1226
##NPOINTS=     7054
##FIRSTY=      0.73996
##MAXY=      1.03782
##MINY=      0.52696
##XYDATA= (X++(Y..Y))
599.7532 7400 7368 7336 7309 7293 7286 7284 7281 7266 7233 7183 7123 7066 7025
606.5029 7007 7009 7022 7030 7023 6994 6944 6878 6804 6729 6657 6592 6531 6467
613.2525 6389 6288 6163 6023 5889 5786 5740 5765 5859 5999 6148 6274 6365 6426
620.0021 6478 6548 6654 6803 6982 7169 7340 7480 7582 7652 7697 7720 7721 7698
626.7518 7653 7593 7531 7478 7440 7414 7392 7363 7324 7276 7223 7170 7118 7066
633.5014 7008 6944 6871 6794 6719 6658 6621 6621 6662 6743 6855 6982 7108 7216
640.2510 7295 7341 7356 7345 7318 7281 7244 7210 7180 7154 7132 7113 7098 7089
647.0007 7085 7086 7089 7092 7096 7101 7104 7105 7103 7099 7096 7098 7106 7119
653.7503 7133 7145 7154 7156 7148 7123 7076 7012 6944 6890 6865 6873 6902 6932
660.4999 6948 6943 6924 6904 6896 6903 6922 6940 6950 6946 6934 6919 6910 6916
667.2496 6957 7055 7190 7256 7243 7207 7172 7140 7102 7054 6998 6944 6906 6895
673.9992 6913 6954 7008 7061 7107 7141 7159 7157 7131 7083 7027 6983 6968 6985
680.7488 7019 7040 7026 6972 6904 6860 6873 6955 7084 7220 7325 7380 7391 7380
687.4985 7362 7341 7314 7282 7256 7247 7248 7237 7185 7079 6936 6797 6698 6652
694.2481 6634 6604 6533 6430 6333 6288 6320 6424 6567 6709 6826 6917 7005 7111
700.9977 7248 7409 7579 7737 7871 7982 8079 8175 8275 8376 8468 8543 8595 8631
707.7474 8659 8689 8721 8751 8773 8780 8773 8755 8729 8699 8668 8642 8630 8639
714.4970 8671 8718 8769 8808 8827 8826 8810 8789 8772 8766 8774 8794 8821 8846
721.2466 8862 8867 8862 8854 8848 8848 8856 8867 8879 8886 8885 8876 8858 8834
727.9963 8808 8783 8766 8758 8760 8769 8781 8793 8803 8810 8815 8818 8817 8816
734.7459 8817 8826 8846 8877 8915 8956 8996 9035 9075 9123 9182 9252 9328 9403
741.4955 9472 9530 9581 9630 9684 9747 9818 9893 9964 10027 10083 10136 10190
747.7631 10246 10302 10348 10375 10378 10360 10328 10288 10241 10184 10112
753.0663 10029 9943 9863 9794 9733 9675 9620 9570 9529 9496 9457 9389 9280
759.3339 9136 8983 8854 8772 8741 8749 8773 8786 8768 8705 8594 8437 8238 8008
766.0835 7759 7501 7241 6978 6711 6444 6193 5978 5823 5750 5774 5897 6114 6408
772.8331 6753 7121 7482 7816 8106 8345 8532 8669 8765 8834 8890 8946 9006 9072
779.5828 9135 9191 9233 9262 9279 9287 9289 9285 9276 9266 9254 9243 9235 9230
786.3324 9226 9221 9213 9200 9182 9161 9141 9123 9108 9096 9089 9084 9081 9078
793.0820 9072 9059 9040 9018 8996 8974 8954 8933 8911 8886 8861 8836 8811 8785
799.8317 8758 8730 8706 8685 8670 8657 8645 8631 8618 8609 8608 8618 8639 8666
806.5813 8694 8719 8738 8751 8760 8768 8775 8780 8783 8786 8789 8793 8798 8800
813.3309 8795 8780 8758 8735 8716 8706 8705 8709 8716 8722 8724 8723 8716 8705
820.0806 8688 8668 8646 8623 8601 8582 8568 8559 8555 8553 8551 8544 8530 8509
826.8302 8487 8467 8455 8451 8453 8455 8451 8437 8413 8383 8356 8337 8329 8332
833.5798 8341 8349 8351 8344 8331 8313 8294 8275 8256 8235 8211 8180 8144 8103
840.3295 8056 8005 7949 7890 7826 7758 7683 7597 7495 7371 7226 7060 6883 6707
847.0791 6548 6420 6337 6309 6338 6421 6551 6717 6907 7106 7298 7467 7600 7691
853.8287 7743 7765 7774 7780 7791 7805 7821 7836 7854 7885 7941 8031 8157 8312
860.5784 8483 8653 8808 8937 9034 9099 9137 9156 9162 9165 9167 9171 9173 9172
867.3280 9166 9157 9148 9142 9142 9144 9147 9145 9137 9122 9105 9086 9070 9057
874.0776 9048 9042 9040 9039 9040 9039 9036 9029 9019 9008 8998 8991 8987 8984
880.8273 8983 8982 8979 8976 8970 8962 8951 8940 8929 8920 8916 8915 8918 8922
887.5769 8926 8927 8922 8912 8898 8883 8870 8859 8853 8851 8850 8850 8849 8847
894.3265 8844 8841 8837 8835 8834 8833 8834 8834 8833 8830 8826 8819 8810 8801
901.0762 8790 8781 8771 8763 8755 8749 8744 8741 8742 8745 8750 8753 8752 8747
907.8258 8738 8728 8720 8716 8716 8719 8723 8725 8723 8716 8705 8694 8685 8678
914.5754 8674 8673 8671 8670 8668 8668 8668 8668 8665 8658 8648 8636 8625 8618
921.3251 8613 8609 8603 8593 8580 8566 8555 8550 8550 8554 8560 8563 8561 8554
928.0747 8542 8529 8514 8501 8489 8478 8470 8461 8452 8439 8424 8407 8392 8380
934.8243 8372 8366 8360 8351 8336 8317 8296 8275 8256 8240 8223 8206 8187 8167
941.5740 8145 8120 8094 8066 8036 8006 7976 7946 7916 7882 7842 7793 7737 7676
948.3236 7613 7554 7500 7451 7405 7358 7308 7254 7198 7143 7091 7047 7016 7002
955.0732 7006 7031 7076 7142 7227 7330 7449 7580 7721 7864 8006 8141 8263 8368
961.8229 8455 8524 8578 8624 8665 8702 8735 8763 8783 8795 8799 8799 8798 8799
968.5725 8802 8806 8808 8807 8801 8791 8779 8768 8761 8756 8752 8748 8742 8734
975.3221 8723 8712 8700 8690 8682 8677 8674 8672 8669 8666 8662 8658 8654 8650
982.0718 8646 8641 8635 8627 8619 8613 8607 8603 8599 8595 8591 8587 8583 8578
988.8214 8572 8563 8554 8545 8536 8528 8522 8516 8510 8504 8499 8495 8491 8486
995.5710 8477 8464 8447 8428 8412 8398 8388 8381 8373 8365 8354 8341 8326 8308
1002.3207 8288 8265 8243 8221 8202 8184 8166 8147 8126 8104 8084 8070 8063
1008.5882 8066 8079 8100 8129 8162 8200 8239 8279 8319 8358 8392 8421 8442
1014.8557 8454 8461 8465 8467 8468 8468 8465 8457 8447 8434 8423 8415 8410
1021.1232 8407 8403 8398 8391 8385 8379 8375 8373 8370 8366 8361 8353 8345
1027.3907 8338 8333 8330 8326 8322 8315 8307 8299 8292 8288 8287 8288 8291
1033.6583 8293 8293 8289 8281 8270 8258 8247 8239 8233 8230 8226 8221 8214
1039.9258 8205 8197 8190 8185 8181 8179 8176 8173 8167 8161 8154 8146 8139
1046.1934 8133 8128 8123 8119 8113 8108 8104 8099 8095 8090 8084 8077 8069
1052.4608 8062 8055 8050 8045 8039 8034 8028 8023 8016 8008 8000 7990 7981
1058.7284 7974 7969 7966 7965 7963 7961 7958 7954 7949 7942 7935 7928 7920
1064.9958 7912 7904 7896 7888 7879 7870 7861 7851 7842 7832 7822 7811 7801
1071.2634 7790 7780 7771 7762 7754 7747 7741 7733 7724 7711 7697 7683 7669
1077.5309 7657 7646 7635 7624 7610 7595 7577 7556 7535 7513 7493 7475 7460
1083.7985 7446 7434 7421 7409 7396 7384 7371 7357 7341 7321 7298 7272 7246
1090.0659 7220 7197 7175 7156 7135 7111 7083 7051 7015 6977 6939 6901 6862
1096.3335 6820 6775 6728 6681 6635 6594 6558 6525 6495 6466 6437 6409 6380
1102.6010 6352 6323 6293 6266 6244 6231 6234 6258 6306 6374 6458 6549 6635
1108.8685 6708 6761 6791 6798 6788 6765 6735 6700 6663 6625 6588 6552 6521
1115.1360 6498 6483 6474 6471 6473 6480 6495 6518 6549 6585 6624 6662 6700
1121.4036 6736 6773 6813 6855 6901 6950 7005 7065 7131 7202 7276 7350 7421
1127.6710 7486 7544 7593 7635 7668 7694 7712 7723 7728 7731 7731 7730 7726
1133.9386 7720 7710 7698 7683 7667 7651 7635 7617 7596 7572 7546 7518 7491
1140.2061 7464 7438 7413 7386 7356 7324 7288 7250 7212 7174 7138 7103 7068
1146.4736 7029 6987 6942 6895 6847 6801 6755 6710 6662 6611 6556 6498 6438
1152.7411 6377 6315 6255 6197 6140 6084 6026 5964 5897 5824 5747 5671 5604
1159.0087 5552 5521 5512 5522 5541 5559 5570 5575 5584 5610 5667 5761 5887
1165.2761 6031 6175 6298 6390 6445 6467 6465 6449 6429 6413 6408 6420 6457
1171.5437 6522 6619 6743 6884 7031 7175 7312 7443 7573 7701 7823 7929 8011
1177.8112 8061 8079 8069 8037 7989 7929 7862 7789 7714 7639 7564 7489 7414
1184.0787 7339 7267 7199 7134 7071 7009 6947 6886 6827 6773 6724 6681 6645
1190.3462 6618 6600 6595 6603 6624 6658 6704 6761 6827 6902 6986 7075 7170
1196.6138 7267 7364 7459 7548 7630 7701 7759 7805 7837 7857 7868 7871 7868
1202.8812 7861 7848 7829 7804 7773 7737 7700 7661 7622 7584 7545 7506 7466
1209.1488 7427 7389 7351 7314 7278 7240 7202 7163 7122 7079 7033 6984 6932
1215.4163 6879 6826 6775 6724 6673 6620 6565 6507 6449 6390 6332 6276 6221
1221.6838 6167 6113 6059 6004 5950 5895 5842 5791 5742 5698 5658 5624 5596
1227.9513 5574 5556 5544 5538 5537 5543 5557 5578 5606 5642 5685 5734 5789
1234.2189 5849 5916 5989 6067 6149 6233 6318 6402 6486 6569 6650 6728 6802
1240.4863 6870 6933 6991 7043 7092 7137 7177 7212 7242 7265 7283 7296 7303
1246.7539 7307 7306 7303 7296 7287 7274 7257 7236 7209 7177 7140 7102 7061
1253.0214 7021 6981 6941 6898 6854 6807 6759 6711 6663 6616 6569 6522 6474
1259.2889 6423 6371 6316 6259 6200 6139 6077 6015 5953 5892 5834 5782 5739
1265.5564 5706 5685 5668 5645 5606 5546 5472 5396 5332 5289 5270 5271 5287
1271.8240 5310 5335 5358 5380 5402 5423 5445 5467 5491 5516 5545 5577 5614
1278.0914 5655 5700 5750 5802 5857 5912 5968 6024 6081 6140 6200 6262 6326
1284.3590 6391 6457 6524 6592 6662 6732 6803 6873 6942 7008 7071 7131 7185
1290.6265 7232 7270 7297 7315 7321 7319 7308 7290 7268 7244 7223 7208 7203
1296.8940 7212 7235 7273 7327 7397 7481 7577 7684 7798 7916 8034 8150 8260
1303.1615 8360 8448 8517 8565 8585 8575 8532 8455 8345 8206 8043 7865 7681
1309.4291 7500 7332 7183 7058 6960 6894 6861 6863 6896 6955 7034 7128 7235
1315.6965 7351 7476 7606 7739 7872 8003 8130 8253 8366 8468 8557 8633 8698
1321.9641 8754 8802 8843 8879 8909 8934 8955 8973 8987 9000 9013 9024 9036
1328.2316 9048 9060 9072 9084 9097 9109 9120 9130 9138 9145 9150 9154 9157
1334.4991 9158 9159 9160 9163 9168 9174 9181 9186 9190 9192 9191 9189 9184
1340.7666 9178 9170 9162 9155 9148 9143 9138 9134 9129 9125 9122 9122 9124
1347.0342 9128 9134 9140 9147 9154 9160 9166 9171 9174 9175 9175 9172 9168
1353.3016 9162 9154 9143 9130 9115 9100 9084 9069 9053 9038 9022 9007 8995
1359.5692 8985 8980 8977 8977 8979 8981 8984 8989 8994 9000 9006 9013 9020
1365.8367 9028 9037 9047 9056 9065 9072 9077 9079 9078 9076 9072 9069 9064
1372.1042 9057 9047 9034 9017 8998 8979 8964 8952 8943 8936 8929 8922 8915
1378.3717 8911 8909 8911 8917 8926 8937 8949 8961 8974 8988 9004 9022 9040
1384.6393 9057 9073 9088 9103 9118 9135 9149 9159 9165 9168 9172 9176 9182
1390.9067 9189 9195 9200 9204 9207 9210 9213 9216 9219 9220 9220 9220 9220
1397.1743 9220 9221 9221 9220 9218 9214 9210 9206 9204 9202 9200 9197 9195
1403.4418 9191 9188 9185 9181 9176 9170 9164 9158 9151 9144 9136 9128 9119
1409.7094 9111 9102 9093 9085 9076 9066 9056 9045 9034 9022 9009 8994 8977
1415.9768 8958 8938 8917 8896 8875 8849 8815 8774 8731 8690 8653 8616 8578
1422.2444 8535 8484 8420 8343 8260 8177 8096 8013 7926 7833 7736 7639 7546
1428.5118 7455 7363 7271 7184 7111 7059 7027 7013 7021 7050 7099 7159 7221
1434.7794 7286 7367 7494 7696 7951 8177 8329 8431 8514 8595 8679 8761 8834
1441.0469 8893 8938 8973 9000 9020 9034 9042 9046 9046 9044 9041 9038 9037
1447.3145 9038 9039 9038 9036 9031 9025 9019 9014 9009 9004 8998 8990 8981
1453.5819 8970 8957 8944 8932 8924 8923 8931 8947 8966 8980 8992 9003 9013
1459.8495 9023 9035 9048 9064 9081 9097 9111 9124 9136 9148 9159 9167 9171
1466.1169 9171 9169 9167 9166 9164 9163 9160 9156 9151 9147 9145 9146 9152
1472.3845 9160 9164 9163 9159 9154 9150 9149 9148 9148 9147 9145 9143 9140
1478.6520 9139 9138 9138 9138 9139 9139 9139 9137 9135 9131 9125 9119 9114
1484.9196 9109 9105 9102 9098 9093 9087 9079 9071 9064 9056 9048 9039 9030
1491.1870 9021 9012 9003 8993 8982 8971 8960 8948 8935 8921 8905 8891 8879
1497.4546 8867 8854 8837 8816 8793 8770 8746 8719 8688 8651 8611 8571 8532
1503.7220 8496 8462 8428 8390 8337 8255 8150 8062 7998 7935 7863 7778 7688
1509.9896 7597 7509 7430 7364 7320 7310 7340 7407 7502 7613 7729 7843 7955
1516.2571 8074 8209 8352 8480 8584 8672 8755 8846 8961 9111 9276 9388 9424
1522.5247 9426 9424 9424 9423 9417 9405 9390 9375 9363 9354 9345 9337 9329
1528.7921 9321 9314 9307 9300 9293 9287 9282 9276 9269 9257 9242 9226 9214
1535.0597 9205 9197 9191 9184 9177 9169 9160 9150 9138 9129 9122 9116 9107
1541.3271 9095 9080 9064 9050 9037 9025 9012 8997 8981 8965 8950 8936 8923
1547.5947 8910 8899 8889 8881 8875 8870 8863 8855 8845 8835 8826 8819 8814
1553.8622 8810 8805 8798 8789 8779 8770 8761 8754 8750 8750 8752 8738 8709
1560.1298 8679 8651 8624 8599 8574 8549 8524 8499 8474 8449 8423 8395 8364
1566.3972 8332 8300 8267 8234 8198 8158 8110 8061 8016 7975 7934 7891 7844
1572.6648 7793 7744 7698 7659 7623 7586 7542 7485 7426 7373 7327 7281 7232
1578.9323 7176 7115 7050 6980 6909 6835 6761 6687 6615 6549 6490 6442 6407
1585.1998 6387 6382 6393 6418 6457 6507 6568 6638 6718 6806 6901 7000 7099
1591.4674 7197 7290 7377 7458 7535 7609 7680 7746 7808 7864 7917 7966 8012
1597.7349 8051 8081 8098 8099 8082 8044 7986 7908 7810 7693 7561 7423 7290
1604.0024 7175 7089 7039 7029 7060 7130 7231 7354 7489 7634 7786 7944 8101
1610.2699 8247 8377 8493 8599 8699 8792 8874 8940 8989 9024 9053 9082 9116
1616.5375 9153 9178 9187 9185 9179 9172 9164 9155 9146 9136 9127 9118 9110
1622.8049 9102 9090 9074 9055 9038 9021 9006 8992 8979 8966 8955 8945 8937
1629.0725 8930 8924 8918 8913 8908 8904 8901 8897 8893 8888 8882 8879 8879
1635.3400 8885 8893 8894 8889 8878 8864 8849 8834 8818 8803 8787 8773 8758
1641.6075 8745 8732 8721 8711 8703 8698 8695 8695 8697 8700 8697 8684 8662
1647.8750 8637 8613 8593 8575 8559 8543 8527 8509 8490 8468 8442 8408 8372
1654.1426 8339 8308 8279 8250 8221 8192 8163 8133 8103 8075 8046 8017 7987
1660.4100 7957 7925 7892 7856 7817 7779 7746 7717 7690 7661 7630 7597 7563
1666.6776 7533 7505 7477 7444 7399 7344 7290 7243 7204 7167 7126 7085 7047
1672.9451 7013 6983 6955 6926 6896 6873 6861 6860 6865 6873 6888 6911 6948
1679.2126 7003 7076 7155 7225 7276 7309 7327 7340 7364 7442 7622 7815 7910
1685.4801 7945 7970 8003 8052 8118 8202 8300 8404 8506 8601 8689 8770 8845
1691.7477 8916 8981 9040 9092 9139 9185 9238 9310 9406 9497 9549 9567 9571
1698.0151 9573 9577 9587 9609 9648 9688 9704 9705 9703 9701 9701 9702 9706
1704.2827 9711 9717 9723 9728 9732 9736 9739 9740 9740 9739 9740 9741 9744
1710.5502 9747 9749 9751 9752 9753 9755 9758 9762 9765 9766 9767 9769 9775
1716.8177 9784 9793 9795 9787 9779 9774 9775 9779 9783 9787 9790 9790 9789
1723.0852 9787 9786 9785 9786 9787 9788 9789 9788 9786 9785 9784 9786 9788
1729.3528 9791 9791 9787 9781 9775 9769 9766 9765 9767 9769 9768 9761 9754
1735.6202 9748 9742 9738 9735 9732 9730 9729 9729 9729 9728 9726 9723 9720
1741.8878 9718 9717 9716 9714 9712 9709 9706 9703 9703 9704 9708 9712 9716
1748.1553 9717 9715 9713 9710 9707 9705 9703 9701 9699 9697 9696 9696 9695
1754.4229 9695 9694 9694 9693 9693 9693 9694 9693 9691 9688 9684 9680 9678
1760.6903 9675 9674 9671 9669 9667 9666 9666 9667 9669 9671 9672 9674 9676
1766.9579 9679 9680 9678 9674 9668 9664 9662 9662 9665 9670 9674 9674 9670
1773.2253 9666 9662 9659 9657 9655 9653 9650 9647 9644 9641 9638 9637 9637
1779.4929 9640 9644 9648 9649 9647 9642 9636 9630 9626 9624 9624 9627 9631
1785.7604 9635 9637 9638 9637 9636 9633 9630 9626 9622 9618 9615 9615 9617
1792.0280 9624 9632 9637 9639 9638 9634 9629 9625 9621 9619 9617 9617 9616
1798.2954 9617 9619 9623 9628 9632 9635 9635 9633 9629 9624 9620 9617 9616
1804.5630 9618 9623 9628 9632 9634 9633 9630 9627 9624 9622 9621 9621 9622
1810.8304 9624 9624 9624 9621 9617 9612 9608 9608 9610 9616 9621 9625 9625
1817.0980 9621 9616 9612 9610 9610 9612 9614 9613 9612 9609 9609 9611 9616
1823.3655 9623 9632 9640 9646 9647 9643 9636 9629 9622 9618 9615 9615 9617
1829.6331 9620 9620 9619 9616 9613 9609 9606 9606 9609 9616 9626 9636 9643
1835.9005 9645 9640 9631 9620 9610 9606 9606 9609 9613 9616 9617 9617 9615
1842.1681 9614 9613 9612 9611 9608 9604 9600 9597 9595 9595 9597 9600 9604
1848.4355 9607 9610 9611 9612 9611 9611 9610 9607 9604 9599 9592 9583 9574
1854.7031 9565 9559 9558 9561 9567 9575 9581 9583 9582 9580 9577 9575 9573
1860.9706 9571 9569 9570 9576 9585 9595 9603 9607 9606 9602 9599 9598 9600
1867.2382 9604 9607 9605 9598 9585 9569 9554 9542 9536 9536 9542 9551 9560
1873.5056 9566 9567 9565 9563 9563 9566 9571 9576 9580 9583 9585 9586 9585
1879.7732 9580 9571 9559 9547 9539 9537 9540 9547 9552 9555 9554 9551 9548
1886.0406 9546 9548 9553 9561 9572 9584 9594 9599 9599 9595 9591 9586 9581
1892.3082 9575 9566 9556 9547 9542 9542 9547 9552 9552 9547 9536 9524 9512
1898.5757 9505 9501 9500 9500 9501 9502 9504 9508 9514 9521 9527 9530 9528
1904.8433 9524 9520 9517 9517 9517 9517 9515 9511 9507 9502 9498 9494 9488
1911.1107 9480 9472 9463 9457 9455 9457 9466 9478 9491 9500 9504 9501 9495
1917.3783 9489 9489 9497 9508 9517 9520 9516 9509 9501 9499 9504 9515 9525
1923.6458 9529 9523 9509 9493 9478 9469 9466 9472 9483 9497 9509 9512 9505
1929.9133 9490 9473 9463 9464 9480 9503 9526 9540 9540 9530 9514 9501 9495
1936.1808 9495 9496 9495 9488 9478 9471 9473 9488 9514 9547 9584 9618 9644
1942.4484 9653 9640 9607 9564 9521 9490 9478 9489 9518 9556 9590 9611 9614
1948.7158 9601 9575 9543 9513 9493 9490 9507 9542 9587 9629 9655 9657 9636
1954.9834 9599 9560 9528 9506 9492 9483 9481 9490 9510 9537 9562 9575 9574
1961.2509 9565 9556 9552 9552 9548 9538 9522 9506 9496 9492 9492 9493 9501
1967.5184 9523 9568 9630 9697 9749 9770 9754 9706 9637 9566 9505 9468 9461
1973.7859 9485 9533 9591 9639 9659 9649 9620 9589 9569 9563 9562 9557 9540
1980.0535 9514 9485 9460 9445 9443 9454 9474 9498 9517 9525 9519 9505 9491
1986.3209 9483 9486 9498 9517 9543 9574 9606 9631 9637 9619 9577 9530 9499
1992.5885 9499 9523 9551 9567 9563 9547 9533 9534 9553 9579 9599 9603 9589
1998.8560 9564 9537 9518 9511 9515 9525 9536 9541 9536 9522 9503 9486 9476
2005.1235 9473 9475 9480 9485 9493 9504 9517 9533 9547 9560 9570 9580 9589
2011.3910 9596 9598 9591 9571 9538 9499 9462 9441 9443 9466 9502 9536 9562
2017.6586 9581 9600 9622 9642 9648 9631 9593 9545 9503 9481 9483 9505 9538
2023.9260 9576 9617 9656 9692 9716 9724 9712 9682 9640 9595 9553 9515 9479
2030.1936 9442 9404 9375 9365 9383 9427 9484 9530 9549 9539 9514 9494 9492
2036.4611 9509 9533 9552 9560 9560 9558 9560 9564 9568 9569 9571 9575 9580
2042.7286 9578 9559 9521 9474 9434 9419 9431 9461 9489 9499 9489 9468 9455
2048.9961 9460 9483 9515 9542 9555 9552 9537 9520 9506 9501 9504 9511 9514
2055.2637 9510 9496 9478 9462 9456 9460 9474 9490 9501 9504 9496 9483 9471
2061.5313 9464 9465 9472 9481 9487 9487 9483 9476 9471 9467 9463 9456 9444
2067.7986 9428 9411 9399 9395 9403 9421 9445 9469 9487 9494 9492 9484 9477
2074.0662 9472 9470 9465 9454 9435 9413 9399 9398 9413 9437 9461 9474 9473
2080.3337 9464 9453 9449 9453 9461 9465 9461 9449 9434 9421 9415 9416 9421
2086.6013 9429 9438 9448 9461 9474 9482 9481 9470 9455 9443 9440 9449 9462
2092.8687 9470 9466 9451 9431 9418 9418 9433 9454 9473 9483 9483 9475 9466
2099.1362 9457 9451 9446 9442 9438 9435 9435 9439 9448 9458 9468 9474 9474
2105.4038 9468 9458 9446 9433 9422 9412 9406 9405 9410 9421 9435 9451 9465
2111.6714 9477 9485 9487 9484 9475 9461 9446 9434 9428 9429 9437 9448 9459
2117.9387 9466 9467 9462 9452 9439 9427 9417 9412 9413 9420 9433 9449 9465
2124.2063 9476 9479 9473 9464 9456 9452 9452 9452 9446 9432 9410 9387 9369
2130.4739 9361 9365 9380 9402 9429 9457 9481 9496 9502 9503 9505 9516 9535
2136.7415 9555 9566 9563 9547 9528 9517 9519 9532 9545 9547 9532 9505 9476
2143.0088 9456 9449 9452 9461 9470 9477 9483 9492 9503 9516 9530 9541 9547
2149.2764 9546 9535 9516 9496 9488 9503 9542 9598 9651 9681 9676 9641 9589
2155.5439 9541 9510 9501 9510 9527 9548 9569 9589 9604 9605 9587 9552 9511
2161.8115 9478 9467 9482 9517 9561 9597 9615 9611 9587 9553 9516 9484 9462
2168.0789 9450 9447 9453 9465 9484 9508 9537 9563 9580 9584 9576 9562 9549
2174.3464 9539 9528 9507 9475 9437 9408 9398 9413 9442 9471 9486 9484 9470
2180.6140 9455 9451 9464 9494 9535 9581 9622 9646 9649 9630 9596 9561 9536
2186.8816 9526 9531 9542 9553 9559 9559 9558 9558 9562 9571 9583 9596 9606
2193.1489 9610 9605 9592 9573 9553 9537 9525 9518 9515 9511 9504 9492 9474
2199.4165 9453 9434 9422 9421 9430 9446 9465 9482 9495 9504 9508 9504 9490
2205.6841 9465 9436 9413 9406 9419 9447 9476 9494 9498 9492 9488 9496 9513
2211.9517 9533 9544 9539 9520 9495 9475 9466 9466 9472 9478 9479 9474 9462
2218.2190 9449 9437 9431 9432 9442 9458 9477 9496 9513 9524 9529 9527 9518
2224.4866 9504 9487 9469 9454 9445 9444 9450 9463 9477 9488 9493 9492 9488
2230.7542 9484 9482 9479 9472 9460 9442 9420 9400 9385 9377 9378 9387 9404
2237.0217 9424 9441 9449 9445 9432 9417 9408 9409 9417 9428 9436 9440 9441
2243.2891 9441 9440 9438 9433 9426 9418 9411 9407 9408 9412 9418 9424 9428
2249.5566 9430 9429 9426 9424 9424 9428 9436 9445 9455 9463 9468 9471 9469
2255.8242 9464 9454 9442 9429 9416 9405 9396 9391 9390 9392 9397 9403 9408
2262.0918 9414 9419 9425 9430 9432 9430 9425 9420 9419 9421 9427 9433 9434
2268.3591 9430 9421 9411 9403 9396 9390 9383 9373 9362 9353 9348 9350 9357
2274.6267 9369 9382 9394 9402 9406 9405 9402 9399 9397 9397 9396 9393 9388
2280.8943 9381 9376 9374 9375 9379 9382 9382 9377 9369 9361 9357 9357 9361
2287.1619 9367 9372 9374 9374 9372 9370 9367 9364 9361 9357 9356 9356 9359
2293.4292 9362 9365 9366 9365 9364 9363 9363 9364 9366 9370 9374 9378 9381
2299.6968 9382 9383 9383 9386 9391 9395 9398 9398 9394 9387 9382 9379 9381
2305.9644 9388 9399 9410 9420 9425 9424 9420 9415 9412 9413 9415 9416 9413
2312.2319 9407 9399 9392 9387 9387 9390 9396 9403 9409 9412 9413 9412 9413
2318.4993 9416 9422 9429 9436 9440 9440 9437 9432 9427 9424 9424 9425 9426
2324.7668 9423 9418 9412 9410 9412 9420 9429 9434 9434 9430 9425 9423 9424
2331.0344 9427 9429 9429 9427 9423 9416 9408 9401 9400 9406 9421 9440 9455
2337.3020 9459 9452 9438 9423 9409 9399 9392 9386 9384 9388 9399 9415 9431
2343.5693 9444 9452 9457 9463 9469 9472 9467 9456 9439 9422 9407 9395 9387
2349.8369 9382 9380 9379 9380 9384 9389 9392 9393 9390 9386 9382 9382 9385
2356.1045 9392 9402 9416 9437 9465 9496 9523 9538 9538 9525 9505 9482 9460
2362.3721 9444 9436 9437 9445 9455 9461 9458 9450 9441 9436 9436 9439 9441
2368.6394 9441 9440 9438 9436 9434 9431 9427 9423 9418 9411 9401 9388 9373
2374.9070 9359 9351 9349 9351 9355 9358 9359 9357 9353 9349 9344 9339 9335
2381.1746 9331 9329 9329 9329 9329 9328 9326 9324 9322 9321 9320 9319 9318
2387.4421 9318 9319 9321 9324 9327 9329 9330 9328 9325 9321 9317 9315 9314
2393.7095 9315 9316 9317 9316 9314 9309 9305 9301 9300 9301 9305 9309 9313
2399.9771 9316 9317 9316 9312 9308 9305 9302 9301 9301 9301 9300 9298 9295
2406.2446 9293 9291 9292 9294 9298 9301 9302 9301 9297 9291 9287 9285 9288
2412.5122 9292 9297 9300 9301 9300 9299 9299 9300 9302 9306 9310 9314 9317
2418.7795 9318 9317 9314 9311 9309 9308 9306 9304 9299 9294 9290 9288 9289
2425.0471 9293 9298 9304 9309 9312 9313 9313 9310 9306 9301 9297 9294 9293
2431.3147 9295 9300 9307 9314 9320 9323 9322 9319 9315 9311 9308 9307 9306
2437.5823 9305 9304 9303 9302 9302 9302 9304 9305 9306 9305 9304 9302 9300
2443.8496 9300 9299 9299 9299 9300 9301 9304 9307 9309 9308 9305 9299 9294
2450.1172 9290 9289 9288 9286 9282 9278 9274 9272 9272 9275 9278 9280 9281
2456.3848 9282 9282 9281 9278 9273 9268 9264 9263 9267 9273 9280 9285 9286
2462.6523 9285 9283 9281 9281 9283 9287 9290 9293 9293 9290 9285 9281 9279
2468.9197 9281 9285 9292 9298 9303 9306 9307 9307 9305 9302 9299 9296 9295
2475.1873 9296 9299 9303 9306 9307 9306 9305 9305 9305 9306 9308 9309 9310
2481.4548 9311 9311 9311 9309 9306 9303 9302 9303 9308 9314 9318 9320 9318
2487.7224 9313 9309 9307 9308 9313 9318 9322 9323 9320 9315 9309 9305 9303
2493.9897 9304 9307 9310 9311 9308 9302 9294 9288 9285 9287 9294 9302 9309
2500.2573 9312 9310 9304 9296 9288 9284 9282 9283 9285 9285 9283 9280 9278
2506.5249 9278 9279 9281 9282 9280 9276 9269 9263 9260 9261 9264 9268 9271
2512.7925 9271 9268 9266 9266 9270 9277 9284 9289 9289 9285 9278 9270 9263
2519.0598 9260 9262 9269 9277 9284 9288 9287 9282 9276 9272 9272 9274 9278
2525.3274 9281 9282 9281 9281 9283 9287 9292 9297 9302 9304 9304 9302 9298
2531.5950 9293 9287 9283 9279 9277 9275 9272 9269 9266 9264 9264 9266 9271
2537.8625 9278 9285 9290 9293 9294 9294 9293 9292 9291 9289 9288 9286 9283
2544.1299 9281 9278 9275 9274 9273 9273 9274 9273 9270 9267 9263 9262 9262
2550.3975 9263 9265 9265 9265 9264 9264 9265 9265 9264 9259 9250 9242 9236
2556.6650 9237 9245 9256 9267 9275 9278 9278 9277 9276 9276 9275 9273 9270
2562.9326 9266 9263 9262 9263 9267 9271 9275 9278 9278 9275 9271 9267 9265
2569.2000 9266 9271 9277 9285 9291 9292 9290 9284 9277 9272 9271 9273 9276
2575.4675 9278 9278 9275 9271 9268 9266 9266 9266 9266 9263 9259 9255 9253
2581.7351 9254 9258 9264 9269 9272 9273 9270 9265 9259 9254 9250 9250 9253
2588.0027 9257 9262 9263 9262 9258 9255 9254 9256 9259 9262 9263 9262 9260
2594.2703 9258 9258 9259 9262 9265 9268 9268 9266 9262 9258 9254 9251 9250
2600.5376 9251 9251 9252 9253 9254 9255 9259 9264 9271 9277 9281 9280 9277
2606.8052 9271 9265 9262 9261 9263 9266 9267 9268 9268 9268 9270 9274 9277
2613.0728 9281 9283 9284 9284 9283 9281 9280 9279 9279 9279 9280 9280 9281
2619.3403 9281 9282 9283 9285 9287 9291 9295 9298 9300 9300 9298 9292 9286
2625.6077 9282 9279 9280 9283 9285 9287 9286 9285 9284 9284 9286 9289 9293
2631.8752 9296 9296 9293 9288 9283 9278 9276 9276 9279 9282 9286 9288 9288
2638.1428 9287 9284 9280 9276 9274 9273 9273 9274 9273 9271 9267 9264 9262
2644.4104 9263 9265 9269 9272 9274 9273 9271 9268 9265 9262 9260 9258 9255
2650.6777 9254 9253 9253 9255 9258 9262 9264 9265 9264 9262 9259 9256 9255
2656.9453 9254 9254 9253 9252 9250 9248 9246 9244 9242 9241 9241 9241 9241
2663.2129 9241 9240 9239 9237 9235 9234 9234 9235 9236 9236 9236 9236 9236
2669.4805 9236 9237 9236 9235 9233 9230 9226 9223 9221 9219 9219 9219 9220
2675.7478 9221 9222 9222 9222 9221 9220 9220 9220 9221 9222 9225 9228 9232
2682.0154 9234 9235 9234 9233 9230 9228 9228 9229 9232 9236 9239 9242 9242
2688.2830 9242 9241 9241 9241 9243 9245 9247 9249 9251 9254 9258 9261 9263
2694.5505 9264 9264 9263 9261 9261 9261 9262 9263 9263 9262 9261 9260 9259
2700.8179 9259 9259 9259 9260 9261 9261 9261 9260 9259 9258 9257 9258 9259
2707.0854 9260 9261 9261 9260 9258 9257 9257 9257 9257 9257 9256 9254 9254
2713.3530 9254 9255 9256 9257 9257 9256 9254 9252 9250 9250 9249 9249 9250
2719.6206 9250 9250 9249 9249 9249 9250 9251 9252 9253 9253 9253 9251 9249
2725.8879 9247 9246 9245 9244 9244 9243 9242 9241 9240 9239 9239 9239 9240
2732.1555 9242 9244 9245 9246 9246 9247 9247 9249 9250 9253 9254 9255 9255
2738.4231 9255 9254 9254 9253 9252 9251 9250 9248 9247 9246 9246 9245 9245
2744.6907 9244 9244 9245 9245 9247 9248 9250 9252 9253 9254 9253 9252 9250
2750.9580 9249 9249 9249 9251 9253 9255 9257 9258 9258 9257 9256 9255 9256
2757.2256 9257 9259 9260 9261 9260 9258 9257 9255 9255 9255 9256 9258 9259
2763.4932 9260 9261 9261 9261 9260 9259 9258 9256 9255 9253 9253 9253 9253
2769.7607 9254 9255 9255 9256 9257 9257 9256 9254 9252 9250 9249 9249 9249
2776.0281 9250 9250 9249 9248 9246 9245 9244 9245 9246 9248 9251 9254 9255
2782.2957 9256 9255 9252 9247 9243 9239 9236 9234 9234 9233 9233 9233 9233
2788.5632 9233 9234 9234 9234 9233 9233 9232 9231 9229 9226 9221 9216 9212
2794.8308 9209 9208 9209 9212 9217 9221 9224 9226 9225 9222 9218 9215 9213
2801.0981 9213 9214 9214 9214 9213 9213 9212 9212 9211 9209 9208 9207 9208
2807.3657 9209 9210 9210 9210 9210 9210 9211 9211 9210 9209 9206 9204 9203
2813.6333 9204 9207 9212 9217 9221 9223 9222 9220 9218 9216 9216 9216 9217
2819.9009 9218 9219 9221 9223 9225 9227 9227 9227 9227 9227 9228 9229 9229
2826.1682 9228 9228 9227 9227 9227 9228 9228 9229 9230 9230 9230 9229 9227
2832.4358 9226 9226 9227 9231 9235 9239 9242 9243 9243 9239 9234 9229 9224
2838.7034 9220 9219 9220 9222 9225 9228 9230 9230 9229 9227 9223 9219 9214
2844.9709 9211 9209 9209 9212 9215 9219 9223 9225 9225 9225 9224 9224 9225
2851.2383 9227 9230 9234 9239 9243 9248 9253 9257 9260 9261 9261 9261 9260
2857.5059 9258 9255 9252 9248 9245 9243 9243 9243 9243 9242 9241 9241 9241
2863.7734 9243 9245 9247 9248 9249 9249 9248 9247 9247 9245 9244 9241 9239
2870.0410 9236 9232 9230 9227 9226 9226 9225 9224 9222 9220 9217 9216 9216
2876.3083 9217 9219 9221 9222 9223 9224 9224 9225 9225 9225 9225 9225 9225
2882.5759 9224 9222 9220 9218 9217 9217 9217 9217 9215 9213 9212 9211 9213
2888.8435 9215 9217 9218 9218 9218 9218 9219 9220 9221 9221 9220 9219 9219
2895.1111 9219 9219 9218 9218 9217 9216 9215 9216 9218 9220 9223 9225 9226
2901.3784 9225 9225 9225 9225 9227 9228 9228 9228 9226 9224 9222 9221 9221
2907.6460 9222 9224 9224 9224 9222 9220 9218 9218 9220 9224 9229 9234 9239
2913.9136 9242 9244 9244 9243 9241 9239 9238 9238 9239 9241 9241 9240 9236
2920.1812 9232 9228 9226 9226 9228 9229 9230 9230 9230 9229 9230 9230 9231
2926.4485 9230 9229 9226 9222 9220 9219 9220 9222 9225 9227 9227 9227 9227
2932.7161 9227 9228 9228 9227 9224 9220 9215 9211 9208 9205 9203 9200 9197
2938.9836 9194 9190 9187 9185 9186 9188 9191 9193 9194 9193 9191 9188 9185
2945.2512 9182 9178 9175 9172 9170 9168 9166 9162 9157 9151 9147 9145 9145
2951.5186 9145 9144 9140 9135 9130 9125 9123 9121 9120 9117 9112 9106 9098
2957.7861 9089 9081 9073 9065 9058 9052 9048 9045 9044 9045 9047 9050 9052
2964.0537 9055 9058 9063 9068 9074 9082 9090 9100 9110 9120 9129 9138 9146
2970.3213 9155 9164 9174 9186 9198 9209 9218 9224 9228 9230 9232 9233 9235
2976.5886 9236 9236 9236 9237 9240 9245 9249 9251 9251 9249 9246 9244 9242
2982.8562 9240 9240 9241 9243 9245 9249 9253 9257 9262 9267 9271 9274 9273
2989.1238 9270 9266 9262 9258 9256 9253 9249 9244 9239 9233 9228 9225 9223
2995.3914 9222 9222 9222 9222 9223 9225 9227 9230 9233 9235 9236 9237 9236
3001.6587 9235 9234 9233 9233 9233 9233 9233 9235 9237 9239 9242 9243 9242
3007.9263 9239 9234 9228 9221 9215 9210 9205 9200 9195 9190 9185 9182 9181
3014.1938 9181 9182 9183 9185 9186 9186 9184 9182 9179 9177 9175 9174 9172
3020.4614 9170 9168 9164 9159 9154 9149 9145 9143 9144 9146 9148 9150 9152
3026.7288 9153 9154 9154 9152 9150 9147 9143 9141 9138 9136 9134 9132 9129
3032.9963 9127 9127 9127 9128 9128 9127 9126 9125 9123 9122 9121 9121 9121
3039.2639 9121 9120 9119 9119 9119 9122 9127 9134 9142 9149 9154 9157 9157
3045.5315 9157 9156 9155 9155 9154 9153 9152 9152 9151 9152 9152 9151 9151
3051.7988 9150 9150 9151 9153 9154 9156 9156 9156 9155 9155 9156 9156 9155
3058.0664 9153 9151 9148 9146 9144 9143 9142 9142 9142 9141 9139 9136 9132
3064.3340 9129 9128 9129 9132 9134 9134 9133 9130 9128 9128 9131 9134 9136
3070.6016 9135 9132 9128 9125 9124 9126 9129 9130 9129 9125 9119 9112 9107
3076.8689 9104 9103 9103 9102 9101 9100 9099 9101 9106 9113 9119 9124 9124
3083.1365 9122 9118 9115 9114 9115 9117 9118 9118 9117 9114 9110 9106 9102
3089.4041 9099 9098 9099 9103 9108 9111 9112 9109 9106 9102 9100 9101 9103
3095.6716 9105 9107 9108 9106 9104 9101 9099 9096 9093 9089 9085 9081 9076
3101.9390 9072 9070 9069 9069 9071 9073 9075 9077 9077 9077 9076 9075 9075
3108.2065 9074 9074 9073 9071 9069 9066 9063 9060 9056 9053 9051 9051 9052
3114.4741 9054 9057 9060 9061 9059 9055 9051 9045 9041 9037 9034 9033 9034
3120.7417 9037 9042 9047 9050 9051 9050 9047 9044 9041 9037 9032 9027 9023
3127.0090 9020 9020 9020 9020 9019 9018 9016 9015 9014 9013 9014 9015 9017
3133.2766 9019 9020 9019 9018 9016 9015 9015 9016 9014 9010 9004 8997 8993
3139.5442 8993 8996 8999 9001 8998 8992 8986 8982 8981 8982 8984 8985 8985
3145.8118 8984 8982 8981 8980 8979 8979 8978 8976 8975 8973 8972 8971 8969
3152.0791 8967 8963 8959 8955 8950 8947 8944 8943 8944 8947 8951 8955 8957
3158.3467 8954 8947 8936 8927 8920 8919 8922 8926 8928 8928 8925 8921 8917
3164.6143 8915 8913 8912 8911 8911 8911 8912 8911 8907 8900 8890 8879 8871
3170.8818 8867 8866 8868 8871 8873 8874 8875 8877 8878 8879 8878 8875 8871
3177.1492 8867 8864 8863 8862 8862 8860 8858 8855 8852 8849 8846 8842 8837
3183.4167 8833 8828 8825 8822 8819 8816 8813 8811 8811 8812 8813 8812 8810
3189.6843 8805 8799 8794 8790 8788 8788 8789 8791 8795 8799 8803 8807 8810
3195.9519 8813 8814 8812 8809 8804 8799 8795 8795 8798 8806 8814 8821 8825
3202.2192 8826 8825 8823 8821 8819 8818 8816 8812 8809 8806 8806 8806 8806
3208.4868 8805 8802 8800 8798 8799 8801 8802 8802 8800 8797 8793 8791 8790
3214.7544 8791 8791 8791 8788 8782 8775 8767 8760 8755 8753 8753 8755 8758
3221.0220 8759 8758 8757 8754 8750 8744 8737 8730 8724 8719 8718 8718 8720
3227.2893 8721 8721 8719 8715 8708 8701 8695 8690 8689 8690 8692 8695 8697
3233.5569 8698 8697 8695 8693 8690 8686 8682 8677 8672 8667 8661 8655 8650
3239.8245 8646 8644 8643 8642 8639 8636 8633 8632 8633 8635 8637 8637 8634
3246.0920 8628 8620 8611 8603 8597 8595 8594 8594 8593 8590 8586 8580 8574
3252.3594 8569 8566 8564 8563 8564 8565 8565 8565 8563 8561 8559 8556 8551
3258.6270 8544 8537 8529 8523 8518 8516 8515 8514 8513 8510 8507 8502 8496
3264.8945 8490 8484 8481 8479 8479 8481 8482 8483 8481 8477 8472 8467 8463
3271.1621 8463 8466 8469 8472 8471 8465 8457 8448 8442 8439 8441 8445 8447
3277.4294 8446 8441 8435 8431 8432 8436 8442 8446 8447 8445 8440 8437 8437
3283.6970 8439 8444 8449 8452 8454 8455 8455 8456 8456 8456 8455 8453 8451
3289.9646 8450 8449 8450 8451 8454 8457 8462 8467 8471 8475 8478 8480 8482
3296.2322 8485 8488 8492 8495 8498 8500 8503 8505 8506 8507 8505 8503 8499
3302.4995 8495 8492 8491 8492 8496 8502 8509 8515 8520 8522 8522 8521 8520
3308.7671 8522 8527 8536 8546 8556 8565 8571 8574 8574 8572 8569 8569 8572
3315.0347 8578 8587 8597 8606 8611 8613 8615 8618 8625 8636 8648 8660 8668
3321.3022 8674 8676 8678 8681 8685 8691 8698 8705 8712 8718 8722 8726 8729
3327.5696 8734 8739 8745 8752 8760 8769 8780 8790 8799 8806 8811 8815 8818
3333.8372 8821 8826 8831 8835 8839 8843 8846 8850 8853 8856 8857 8859 8862
3340.1047 8867 8874 8880 8885 8889 8892 8896 8902 8911 8922 8932 8939 8942
3346.3723 8943 8944 8945 8949 8954 8960 8965 8968 8968 8968 8967 8967 8969
3352.6396 8971 8974 8977 8979 8980 8982 8985 8989 8994 9000 9007 9015 9024
3358.9072 9031 9037 9040 9041 9041 9043 9047 9054 9062 9069 9073 9075 9077
3365.1748 9078 9081 9085 9089 9091 9092 9091 9089 9088 9088 9090 9095 9101
3371.4424 9110 9118 9124 9129 9133 9135 9138 9141 9144 9148 9151 9155 9157
3377.7097 9159 9161 9163 9166 9168 9171 9174 9175 9176 9175 9173 9173 9174
3383.9773 9178 9184 9192 9200 9207 9211 9213 9215 9217 9220 9223 9226 9229
3390.2449 9232 9234 9237 9241 9246 9253 9260 9267 9272 9274 9273 9269 9267
3396.5125 9266 9268 9273 9280 9286 9291 9294 9295 9294 9293 9294 9296 9300
3402.7798 9304 9306 9308 9307 9306 9304 9301 9298 9296 9297 9303 9314 9327
3409.0474 9339 9347 9349 9346 9341 9335 9330 9328 9329 9332 9335 9339 9342
3415.3149 9343 9341 9339 9336 9335 9336 9338 9342 9345 9348 9351 9354 9358
3421.5825 9363 9368 9373 9376 9376 9372 9368 9364 9361 9361 9362 9364 9366
3427.8499 9367 9368 9367 9364 9360 9358 9360 9365 9372 9381 9388 9392 9395
3434.1174 9396 9396 9396 9394 9392 9391 9390 9390 9390 9389 9388 9388 9388
3440.3850 9390 9394 9399 9406 9412 9417 9419 9419 9417 9415 9413 9412 9413
3446.6526 9416 9421 9426 9430 9433 9432 9430 9426 9422 9419 9417 9416 9418
3452.9199 9422 9427 9433 9438 9441 9442 9440 9438 9436 9437 9439 9442 9444
3459.1875 9444 9443 9441 9441 9442 9444 9446 9446 9443 9438 9432 9429 9429
3465.4551 9431 9435 9439 9441 9443 9446 9449 9453 9456 9458 9458 9456 9452
3471.7227 9447 9443 9441 9442 9445 9449 9452 9454 9452 9449 9446 9442 9441
3477.9900 9440 9441 9442 9443 9443 9444 9446 9449 9453 9455 9454 9451 9446
3484.2576 9442 9441 9444 9449 9455 9460 9462 9463 9462 9461 9460 9460 9460
3490.5251 9460 9460 9459 9456 9453 9448 9444 9442 9443 9447 9454 9463 9472
3496.7927 9479 9485 9487 9487 9486 9485 9483 9481 9478 9474 9470 9467 9466
3503.0601 9468 9472 9476 9477 9477 9474 9470 9466 9462 9459 9457 9455 9453
3509.3276 9452 9452 9454 9457 9460 9462 9463 9463 9463 9462 9461 9461 9461
3515.5952 9462 9462 9462 9461 9460 9458 9456 9454 9452 9450 9449 9448 9451
3521.8628 9456 9463 9471 9477 9479 9477 9473 9470 9467 9467 9468 9468 9468
3528.1301 9467 9465 9463 9461 9461 9462 9465 9470 9475 9479 9479 9476 9470
3534.3977 9463 9458 9456 9457 9460 9463 9464 9465 9464 9463 9463 9462 9462
3540.6653 9461 9459 9458 9458 9460 9463 9466 9468 9469 9468 9466 9464 9462
3546.9329 9459 9457 9455 9453 9451 9450 9448 9447 9446 9446 9445 9443 9440
3553.2002 9436 9434 9436 9441 9449 9458 9464 9465 9462 9456 9451 9447 9447
3559.4678 9450 9454 9458 9461 9462 9463 9464 9465 9465 9464 9463 9461 9461
3565.7354 9461 9464 9466 9467 9465 9462 9458 9454 9452 9451 9451 9452 9453
3572.0029 9453 9451 9448 9443 9438 9435 9433 9434 9436 9439 9442 9443 9445
3578.2705 9446 9448 9449 9451 9452 9452 9451 9451 9451 9453 9455 9455 9455
3584.5378 9453 9450 9447 9445 9447 9454 9466 9477 9483 9482 9475 9464 9453
3590.8054 9444 9439 9437 9438 9441 9446 9451 9458 9466 9471 9473 9469 9462
3597.0730 9454 9447 9444 9445 9448 9454 9459 9461 9459 9455 9448 9443 9440
3603.3406 9440 9442 9446 9450 9453 9455 9456 9457 9458 9459 9461 9462 9459
3609.6079 9453 9446 9438 9433 9432 9436 9443 9449 9453 9454 9453 9451 9447
3615.8755 9443 9438 9436 9439 9446 9457 9466 9469 9466 9460 9454 9450 9447
3622.1431 9444 9442 9440 9439 9441 9445 9449 9451 9449 9443 9434 9422 9414
3628.4106 9416 9433 9451 9460 9459 9451 9443 9435 9432 9435 9443 9451 9454
3634.6780 9452 9447 9441 9436 9432 9428 9423 9416 9410 9406 9406 9410 9417
3640.9456 9423 9426 9425 9422 9420 9419 9422 9427 9433 9441 9450 9460 9469
3647.2131 9472 9469 9460 9451 9445 9444 9447 9451 9452 9451 9448 9443 9438
3653.4807 9431 9424 9419 9417 9422 9434 9445 9451 9450 9445 9437 9431 9427
3659.7480 9426 9426 9426 9425 9421 9417 9415 9415 9416 9418 9418 9417 9416
3666.0156 9415 9416 9420 9426 9433 9440 9445 9448 9448 9446 9440 9432 9422
3672.2832 9413 9404 9397 9392 9396 9413 9443 9464 9467 9462 9454 9448 9444
3678.5508 9442 9439 9435 9430 9424 9419 9417 9416 9416 9417 9418 9421 9426
3684.8181 9432 9437 9439 9438 9434 9431 9431 9434 9438 9440 9440 9440 9441
3691.0857 9442 9441 9438 9431 9422 9413 9408 9407 9410 9416 9422 9425 9426
3697.3533 9425 9425 9425 9425 9425 9424 9423 9425 9429 9435 9439 9439 9435
3703.6208 9430 9424 9418 9413 9409 9406 9406 9411 9421 9436 9453 9465 9467
3709.8882 9460 9448 9439 9439 9446 9454 9456 9450 9439 9424 9410 9398 9391
3716.1558 9390 9394 9401 9411 9420 9425 9425 9422 9417 9412 9411 9413 9418
3722.4233 9423 9424 9422 9417 9413 9412 9415 9423 9432 9437 9438 9435 9431
3728.6909 9429 9429 9431 9435 9442 9450 9457 9458 9450 9434 9415 9399 9395
3734.9583 9408 9431 9453 9464 9466 9463 9458 9451 9443 9434 9426 9421 9417
3741.2258 9415 9410 9404 9396 9390 9394 9415 9439 9448 9442 9433 9424 9420
3747.4934 9423 9431 9441 9447 9441 9427 9411 9400 9400 9408 9418 9424 9425
3753.7610 9424 9421 9420 9420 9421 9421 9420 9416 9413 9411 9413 9417 9423
3760.0283 9426 9425 9421 9415 9410 9404 9400 9397 9396 9399 9405 9413 9420
3766.2959 9423 9422 9417 9411 9406 9403 9404 9408 9411 9412 9408 9403 9398
3772.5635 9395 9394 9396 9399 9403 9406 9408 9408 9407 9405 9403 9404 9409
3778.8311 9417 9425 9430 9429 9424 9416 9408 9400 9395 9392 9393 9397 9402
3785.0984 9406 9408 9409 9410 9411 9413 9416 9417 9416 9413 9407 9401 9396
3791.3660 9393 9393 9396 9398 9398 9396 9393 9391 9393 9401 9414 9427 9432
3797.6335 9429 9419 9404 9388 9374 9365 9368 9386 9410 9425 9427 9423 9417
3803.9011 9412 9411 9413 9419 9428 9437 9441 9437 9429 9420 9411 9402 9394
3810.1685 9385 9378 9375 9377 9383 9391 9398 9403 9404 9404 9405 9411 9420
3816.4360 9425 9423 9417 9407 9397 9388 9380 9379 9387 9403 9418 9424 9422
3822.7036 9417 9411 9407 9404 9403 9404 9406 9410 9413 9415 9413 9407 9397
3828.9712 9386 9377 9374 9378 9389 9402 9410 9411 9408 9407 9410 9415 9419
3835.2385 9418 9410 9400 9392 9392 9398 9406 9412 9413 9413 9411 9409 9406
3841.5061 9401 9396 9393 9395 9403 9411 9417 9418 9415 9409 9403 9398 9392
3847.7737 9386 9381 9378 9377 9380 9387 9394 9399 9398 9390 9379 9376 9387
3854.0413 9404 9416 9421 9420 9417 9412 9407 9403 9400 9397 9395 9394 9393
3860.3086 9394 9395 9397 9397 9395 9393 9393 9398 9411 9427 9436 9434 9423
3866.5762 9408 9394 9384 9381 9389 9409 9434 9448 9445 9431 9414 9398 9384
3872.8438 9377 9378 9387 9398 9405 9404 9400 9394 9389 9385 9382 9380 9380
3879.1113 9381 9385 9390 9395 9397 9398 9398 9397 9396 9394 9394 9397 9404
3885.3787 9414 9421 9421 9416 9409 9402 9395 9389 9384 9381 9382 9388 9396
3891.6462 9403 9405 9403 9400 9398 9400 9402 9404 9403 9401 9399 9398 9400
3897.9138 9403 9408 9409 9408 9403 9398 9394 9390 9387 9385 9385 9387 9392
3904.1814 9397 9401 9403 9403 9403 9403 9403 9403 9401 9397 9391 9384 9377
3910.4487 9372 9370 9372 9376 9382 9388 9391 9392 9389 9385 9380 9374 9371
3916.7163 9370 9374 9382 9392 9401 9407 9408 9404 9395 9387 9381 9379 9380
3922.9839 9384 9389 9395 9400 9402 9402 9400 9397 9394 9391 9390 9390 9390
3929.2515 9389 9387 9384 9381 9379 9379 9379 9380 9380 9380 9382 9385 9389
3935.5188 9394 9396 9397 9396 9394 9393 9393 9394 9393 9392 9388 9384 9381
3941.7864 9382 9387 9393 9398 9398 9395 9387 9379 9372 9368 9369 9374 9383
3948.0540 9394 9405 9412 9416 9416 9412 9406 9399 9392 9386 9382 9379 9379
3954.3215 9380 9384 9387 9389 9388 9385 9381 9378 9377 9378 9380 9382 9384
3960.5889 9386 9388 9390 9392 9394 9397 9398 9399 9399 9396 9390 9383 9375
3966.8564 9370 9368 9368 9370 9373 9374 9375 9375 9375 9377 9378 9379 9378
3973.1240 9375 9371 9367 9364 9364 9366 9370 9375 9379 9382 9383 9383 9382
3979.3916 9382 9382 9381 9381 9381 9382 9383 9385 9385 9385 9382 9378 9375
3985.6589 9372 9372 9372 9374 9376 9378 9378 9378 9378 9379 9382 9384 9386
3991.9265 9383 9378 9370 9364 9362 9363 9368 9374 9377 9378 9378 9376 9373
3998.1941 9370 9366 9363 9362 9363
##END= 
