##TITLE= STDCORTISONEACETATO
##JCAMP-DX= 4.24
##DATA TYPE= INFRARED SPECTRUM
##ORIGIN= JASCO
##OWNER= 
##DATE= 22/04/28
##TIME= 11:48:08
##SPECTROMETER/DATA SYSTEM= 
##RESOLUTION= 
##DELTAX=   0.48211674
##XUNITS= 1/CM
##YUNITS= TRANSMITTANCE
##XFACTOR= 1.00000
##YFACTOR= 0.0001
##FIRSTX=   599.7532
##LASTX=  4000.1226
##NPOINTS=     7054
##FIRSTY=      0.93932
##MAXY=      1.04296
##MINY=      0.75394
##XYDATA= (X++(Y..Y))
599.7532 9393 9412 9438 9463 9479 9481 9469 9447 9417 9381 9336 9283 9230 9187
606.5029 9166 9173 9205 9254 9310 9365 9416 9461 9499 9526 9541 9543 9533 9515
613.2525 9491 9467 9448 9438 9440 9453 9475 9502 9533 9563 9591 9613 9629 9642
620.0021 9658 9682 9712 9745 9772 9785 9785 9778 9770 9771 9784 9808 9838 9865
626.7518 9881 9880 9859 9822 9780 9745 9724 9715 9705 9676 9615 9524 9422 9340
633.5014 9308 9341 9432 9556 9682 9781 9842 9867 9869 9863 9858 9857 9859 9861
640.2510 9862 9869 9888 9924 9976 10032 10080 10109 10118 10113 10103 10092
646.0364 10079 10058 10027 9986 9943 9906 9881 9872 9878 9898 9929 9968 10010
652.3040 10047 10072 10074 10047 9989 9901 9796 9693 9615 9582 9606 9685 9801
658.5715 9927 10034 10101 10123 10111 10085 10063 10056 10061 10069 10073
663.8748 10071 10069 10073 10085 10105 10128 10153 10170 10162 10100 10003
669.1780 9914 9839 9770 9702 9638 9585 9552 9546 9569 9618 9682 9745 9791 9811
675.9277 9804 9775 9734 9691 9649 9612 9580 9553 9530 9508 9483 9452 9417 9389
682.6773 9378 9393 9432 9485 9532 9555 9544 9502 9440 9374 9313 9262 9216 9176
689.4269 9143 9125 9135 9182 9271 9399 9558 9730 9893 10022 10100 10119 10089
695.6945 10030 9972 9937 9940 9984 10065 10172 10287 10383 10430 10401 10292
701.4799 10126 9947 9806 9741 9764 9859 9985 10094 10150 10139 10072 9974 9872
707.7474 9781 9711 9661 9633 9629 9650 9696 9761 9835 9908 9969 10012 10031
714.0149 10029 10010 9986 9969 9969 9991 10029 10074 10116 10148 10169 10179
719.8003 10180 10170 10150 10121 10091 10067 10056 10065 10091 10130 10169
725.1036 10196 10203 10193 10173 10158 10159 10182 10220 10260 10285 10280
730.4069 10245 10187 10128 10087 10078 10102 10147 10199 10244 10279 10309
735.7101 10338 10366 10387 10389 10366 10319 10260 10205 10169 10160 10181
741.0134 10224 10273 10307 10309 10272 10208 10141 10097 10092 10129 10192
746.3167 10260 10315 10348 10363 10362 10348 10321 10287 10262 10261 10290
751.6200 10336 10373 10376 10336 10266 10187 10118 10066 10030 10008 10001
756.9233 10014 10050 10098 10141 10165 10166 10156 10154 10171 10208 10253
762.2266 10292 10315 10321 10322 10325 10335 10344 10341 10319 10277 10223
767.5298 10166 10115 10075 10045 10024 10008 9994 9979 9959 9930 9890 9841
773.3152 9785 9722 9653 9578 9499 9420 9347 9283 9229 9184 9147 9118 9100 9094
780.0649 9101 9116 9135 9155 9174 9196 9221 9249 9277 9297 9308 9310 9308 9308
786.8145 9319 9344 9383 9432 9483 9531 9572 9608 9640 9668 9689 9699 9694 9675
793.5641 9646 9612 9577 9541 9508 9482 9474 9492 9536 9600 9673 9738 9787 9817
800.3138 9831 9831 9818 9792 9754 9712 9678 9663 9672 9702 9738 9763 9767 9747
807.0634 9710 9669 9631 9598 9569 9544 9527 9525 9542 9578 9623 9666 9699 9721
813.8130 9739 9759 9783 9808 9830 9844 9851 9853 9854 9857 9859 9857 9853 9849
820.5627 9852 9866 9889 9919 9947 9967 9973 9966 9944 9913 9876 9840 9808 9783
827.3123 9764 9752 9744 9741 9743 9745 9747 9743 9736 9728 9725 9733 9750 9772
834.0620 9790 9798 9793 9780 9765 9756 9754 9760 9767 9771 9767 9754 9734 9710
840.8116 9686 9666 9655 9654 9664 9680 9699 9714 9721 9718 9708 9694 9681 9669
847.5612 9655 9638 9617 9593 9572 9555 9543 9533 9519 9498 9470 9434 9393 9348
854.3109 9301 9250 9197 9141 9083 9027 8978 8942 8927 8938 8974 9026 9085 9140
861.0605 9181 9202 9200 9176 9133 9079 9021 8965 8914 8867 8824 8788 8763 8755
867.8101 8771 8814 8887 8985 9101 9224 9339 9434 9501 9540 9558 9568 9579 9595
874.5598 9614 9629 9638 9639 9636 9631 9626 9621 9613 9601 9587 9573 9560 9549
881.3094 9539 9532 9524 9514 9500 9480 9453 9421 9389 9360 9334 9309 9283 9250
888.0590 9213 9177 9151 9142 9156 9188 9234 9283 9326 9357 9376 9384 9387 9391
894.8087 9398 9407 9416 9420 9417 9404 9383 9353 9315 9272 9226 9178 9134 9098
901.5583 9072 9060 9064 9083 9118 9165 9223 9287 9350 9410 9464 9511 9551 9584
908.3079 9610 9629 9638 9639 9633 9623 9613 9606 9601 9599 9598 9594 9587 9574
915.0576 9557 9537 9514 9489 9462 9433 9405 9381 9365 9362 9373 9395 9421 9442
921.8072 9453 9451 9437 9414 9384 9349 9311 9271 9233 9199 9170 9148 9134 9130
928.5568 9139 9163 9201 9250 9306 9363 9418 9468 9512 9549 9578 9600 9615 9627
935.3065 9637 9646 9653 9659 9663 9661 9654 9641 9624 9603 9581 9558 9534 9510
942.0561 9487 9469 9458 9456 9461 9468 9472 9467 9454 9434 9412 9392 9378 9372
948.8057 9374 9382 9398 9419 9445 9475 9506 9535 9559 9577 9590 9599 9607 9615
955.5554 9622 9627 9629 9630 9630 9633 9642 9655 9669 9680 9682 9674 9659 9639
962.3050 9620 9602 9584 9566 9546 9526 9511 9503 9505 9514 9527 9541 9553 9564
969.0546 9571 9577 9580 9584 9587 9591 9592 9591 9584 9575 9564 9553 9542 9528
975.8043 9508 9478 9438 9389 9334 9277 9220 9165 9113 9066 9027 8997 8978 8970
982.5539 8972 8982 8997 9013 9029 9045 9062 9083 9110 9142 9176 9210 9241 9269
989.3035 9295 9321 9350 9380 9409 9436 9460 9479 9496 9512 9528 9544 9559 9573
996.0532 9584 9594 9603 9610 9615 9615 9610 9600 9589 9579 9576 9581 9592 9605
1002.8028 9615 9618 9613 9604 9590 9576 9561 9548 9535 9526 9520 9519 9523
1009.0703 9529 9535 9539 9543 9547 9551 9556 9562 9566 9570 9574 9580 9589
1015.3378 9600 9609 9612 9606 9592 9573 9552 9533 9518 9506 9495 9481 9461
1021.6053 9436 9409 9382 9360 9345 9336 9333 9332 9331 9328 9320 9305 9281
1027.8729 9249 9212 9176 9149 9138 9144 9162 9185 9206 9219 9222 9215 9197
1034.1404 9170 9138 9103 9067 9033 9001 8971 8940 8909 8877 8845 8811 8774
1040.4080 8731 8681 8625 8564 8502 8443 8390 8345 8309 8283 8266 8259 8260
1046.6754 8266 8279 8299 8330 8373 8429 8496 8571 8650 8732 8815 8898 8979
1052.9430 9057 9131 9199 9260 9312 9355 9390 9417 9438 9453 9462 9467 9467
1059.2104 9462 9453 9443 9431 9421 9414 9408 9405 9403 9404 9409 9419 9435
1065.4780 9456 9478 9498 9514 9524 9531 9538 9545 9554 9564 9571 9575 9574
1071.7455 9571 9566 9560 9553 9543 9530 9516 9501 9485 9467 9445 9417 9383
1078.0131 9344 9303 9261 9219 9176 9131 9084 9040 9002 8972 8954 8950 8959
1084.2805 8981 9014 9053 9094 9132 9163 9189 9209 9225 9236 9240 9239 9234
1090.5481 9227 9225 9229 9241 9262 9291 9326 9367 9409 9448 9481 9505 9523
1096.8156 9535 9546 9554 9560 9561 9556 9546 9531 9514 9494 9469 9440 9404
1103.0831 9363 9321 9280 9245 9220 9208 9209 9224 9248 9277 9304 9325 9337
1109.3506 9340 9335 9325 9312 9296 9280 9266 9256 9251 9255 9268 9288 9314
1115.6182 9344 9376 9407 9435 9458 9474 9485 9491 9497 9504 9512 9518 9521
1121.8856 9518 9508 9490 9465 9435 9400 9362 9324 9287 9253 9222 9196 9173
1128.1532 9151 9129 9104 9073 9039 9000 8961 8922 8884 8848 8818 8796 8786
1134.4207 8794 8818 8859 8911 8971 9034 9094 9149 9194 9229 9253 9269 9278
1140.6882 9285 9293 9307 9331 9365 9408 9454 9499 9535 9561 9576 9584 9586
1146.9557 9585 9581 9575 9566 9556 9547 9539 9535 9533 9532 9529 9522 9511
1153.2233 9499 9489 9485 9489 9499 9509 9516 9516 9512 9506 9502 9501 9500
1159.4907 9498 9492 9481 9467 9451 9433 9413 9391 9367 9343 9321 9299 9277
1165.7583 9254 9228 9199 9173 9151 9138 9135 9143 9157 9174 9190 9201 9205
1172.0258 9204 9199 9191 9180 9166 9147 9127 9108 9094 9088 9089 9094 9100
1178.2933 9103 9102 9098 9093 9086 9078 9066 9049 9027 9004 8984 8969 8959
1184.5608 8951 8941 8924 8898 8865 8826 8784 8738 8689 8636 8579 8521 8466
1190.8284 8416 8376 8347 8333 8334 8349 8373 8403 8433 8460 8485 8510 8537
1197.0958 8570 8611 8663 8724 8792 8863 8934 9001 9063 9120 9170 9213 9248
1203.3634 9275 9293 9306 9315 9322 9325 9323 9316 9303 9286 9266 9243 9218
1209.6309 9191 9161 9127 9090 9049 9003 8952 8897 8837 8773 8705 8634 8561
1215.8984 8491 8425 8367 8319 8280 8251 8228 8210 8196 8186 8183 8185 8194
1222.1659 8205 8215 8220 8214 8195 8163 8119 8063 7999 7928 7856 7789 7732
1228.4335 7693 7674 7673 7687 7710 7736 7760 7778 7791 7798 7805 7818 7842
1234.7009 7882 7939 8009 8087 8166 8241 8307 8362 8404 8432 8448 8453 8450
1240.9685 8441 8430 8419 8410 8406 8407 8413 8424 8440 8457 8476 8494 8512
1247.2360 8531 8556 8586 8625 8672 8726 8782 8838 8891 8938 8978 9011 9035
1253.5035 9050 9054 9046 9024 8991 8947 8896 8842 8788 8739 8699 8670 8653
1259.7710 8647 8647 8647 8640 8618 8580 8523 8449 8362 8268 8178 8102 8048
1266.0386 8021 8017 8027 8034 8027 7998 7952 7899 7846 7799 7756 7716 7675
1272.3060 7634 7596 7565 7545 7539 7554 7592 7655 7742 7844 7949 8039 8100
1278.5736 8119 8097 8040 7963 7884 7822 7790 7796 7838 7913 8011 8125 8246
1284.8411 8368 8483 8589 8683 8766 8839 8906 8969 9027 9080 9126 9162 9190
1291.1086 9211 9227 9240 9253 9266 9277 9287 9293 9295 9292 9286 9279 9274
1297.3761 9269 9265 9260 9252 9243 9231 9219 9207 9196 9184 9173 9163 9155
1303.6437 9151 9151 9155 9163 9175 9193 9215 9242 9273 9306 9338 9367 9390
1309.9111 9405 9412 9412 9404 9391 9374 9357 9339 9325 9313 9305 9300 9296
1316.1787 9291 9284 9275 9261 9243 9220 9195 9170 9149 9134 9126 9127 9134
1322.4462 9148 9166 9185 9204 9221 9234 9244 9251 9256 9259 9261 9262 9261
1328.7137 9260 9258 9257 9259 9264 9270 9277 9282 9283 9279 9272 9263 9255
1334.9812 9247 9238 9227 9211 9190 9164 9134 9101 9066 9030 8997 8970 8950
1341.2488 8937 8927 8916 8900 8881 8858 8835 8813 8795 8778 8760 8740 8719
1347.5162 8698 8682 8671 8669 8674 8686 8702 8723 8747 8775 8807 8843 8881
1353.7838 8919 8956 8988 9015 9036 9050 9058 9060 9057 9050 9040 9026 9011
1360.0513 8993 8973 8949 8919 8881 8829 8766 8694 8620 8545 8470 8394 8316
1366.3188 8238 8161 8089 8023 7968 7927 7904 7901 7916 7945 7982 8024 8070
1372.5863 8122 8182 8249 8321 8392 8455 8508 8552 8592 8629 8667 8705 8744
1378.8539 8782 8820 8858 8896 8935 8973 9011 9047 9077 9103 9125 9145 9164
1385.1213 9184 9205 9226 9244 9257 9264 9265 9264 9262 9258 9252 9242 9228
1391.3889 9211 9192 9169 9140 9100 9042 8972 8905 8864 8861 8892 8947 9016
1397.6564 9094 9175 9248 9303 9337 9354 9362 9365 9367 9367 9365 9360 9350
1403.9240 9334 9312 9284 9256 9229 9204 9178 9148 9111 9066 9014 8958 8901
1410.1914 8846 8795 8753 8721 8704 8702 8716 8744 8784 8832 8886 8943 9000
1416.4590 9055 9105 9150 9189 9221 9242 9253 9256 9258 9263 9270 9279 9290
1422.7264 9304 9319 9335 9350 9362 9373 9381 9389 9398 9407 9416 9424 9429
1428.9940 9430 9427 9420 9414 9408 9402 9395 9384 9371 9358 9349 9344 9344
1435.2615 9346 9349 9351 9355 9365 9380 9398 9416 9432 9444 9450 9451 9447
1441.5291 9441 9433 9424 9415 9406 9396 9386 9377 9369 9361 9348 9326 9293
1447.7965 9251 9212 9186 9177 9183 9201 9229 9261 9296 9327 9352 9371 9386
1454.0641 9398 9409 9418 9422 9418 9401 9375 9351 9338 9334 9337 9343 9350
1460.3315 9355 9356 9352 9344 9334 9323 9313 9306 9302 9304 9313 9327 9345
1466.5991 9365 9385 9405 9425 9445 9465 9486 9510 9537 9568 9603 9638 9667
1472.8666 9684 9689 9687 9680 9667 9643 9607 9564 9523 9492 9472 9459 9447
1479.1342 9435 9422 9408 9396 9388 9385 9387 9395 9409 9431 9460 9494 9533
1485.4016 9575 9617 9659 9697 9731 9757 9776 9790 9798 9799 9794 9788 9783
1491.6692 9781 9781 9781 9783 9786 9790 9793 9795 9792 9784 9774 9765 9760
1497.9366 9757 9756 9753 9750 9745 9739 9733 9726 9720 9714 9710 9709 9709
1504.2042 9711 9716 9723 9731 9733 9723 9708 9699 9699 9704 9711 9718 9724
1510.4717 9726 9727 9724 9720 9715 9710 9707 9707 9709 9714 9720 9728 9733
1516.7393 9736 9737 9738 9742 9748 9754 9758 9757 9749 9735 9728 9733 9743
1523.0067 9753 9760 9763 9762 9759 9756 9755 9756 9757 9756 9754 9750 9748
1529.2743 9747 9747 9747 9746 9744 9739 9732 9722 9712 9705 9703 9706 9712
1535.5417 9719 9727 9734 9742 9749 9753 9750 9734 9706 9682 9675 9680 9689
1541.8093 9698 9704 9707 9706 9703 9697 9689 9682 9678 9676 9676 9678 9679
1548.0768 9679 9678 9673 9666 9656 9650 9648 9650 9655 9661 9663 9661 9653
1554.3444 9643 9639 9643 9653 9666 9681 9696 9703 9689 9636 9575 9544 9533
1560.6118 9528 9524 9521 9517 9514 9510 9506 9502 9496 9492 9488 9486 9486
1566.8794 9488 9492 9497 9499 9496 9482 9463 9447 9437 9432 9428 9423 9417
1573.1469 9411 9406 9402 9399 9390 9370 9338 9308 9292 9289 9291 9295 9297
1579.4144 9297 9296 9295 9296 9299 9303 9309 9316 9323 9330 9335 9339 9341
1585.6819 9342 9341 9339 9335 9329 9322 9312 9302 9292 9282 9272 9262 9252
1591.9495 9243 9237 9235 9236 9240 9246 9253 9260 9268 9276 9285 9295 9305
1598.2170 9316 9326 9337 9346 9354 9361 9365 9367 9366 9360 9351 9338 9325
1604.4845 9312 9301 9292 9283 9276 9267 9257 9244 9228 9211 9194 9181 9173
1610.7521 9169 9167 9165 9160 9153 9147 9143 9144 9151 9164 9184 9215 9252
1617.0195 9285 9307 9322 9334 9344 9353 9361 9367 9371 9373 9374 9371 9362
1623.2871 9349 9335 9326 9323 9324 9326 9328 9328 9323 9313 9302 9292 9286
1629.5546 9284 9283 9281 9277 9272 9268 9267 9270 9276 9283 9287 9282 9263
1635.8221 9236 9214 9199 9189 9179 9169 9157 9145 9130 9112 9090 9064 9035
1642.0896 9004 8975 8949 8928 8912 8900 8889 8875 8855 8827 8794 8762 8736
1648.3572 8717 8707 8704 8708 8718 8733 8753 8775 8790 8774 8717 8680 8684
1654.6246 8704 8727 8747 8762 8772 8776 8774 8769 8762 8755 8750 8745 8743
1660.8922 8740 8732 8715 8687 8652 8621 8598 8581 8566 8549 8529 8508 8488
1667.1597 8468 8445 8411 8363 8306 8254 8213 8183 8158 8138 8128 8129 8143
1673.4272 8166 8199 8241 8295 8355 8412 8463 8512 8560 8609 8658 8706 8754
1679.6947 8802 8849 8894 8935 8973 9007 9039 9065 9069 9022 8946 8894 8874
1685.9623 8867 8862 8853 8837 8812 8777 8733 8683 8632 8583 8535 8489 8445
1692.2297 8403 8366 8335 8310 8289 8266 8229 8175 8123 8099 8103 8120 8142
1698.4973 8165 8186 8203 8212 8216 8225 8240 8256 8271 8283 8292 8296 8298
1704.7648 8301 8311 8333 8368 8414 8465 8518 8571 8626 8686 8749 8814 8876
1711.0323 8932 8981 9025 9065 9102 9138 9172 9203 9228 9247 9261 9273 9285
1717.2998 9297 9311 9323 9331 9338 9343 9347 9350 9353 9354 9356 9358 9360
1723.5674 9361 9360 9353 9342 9325 9303 9279 9256 9236 9223 9214 9210 9210
1729.8348 9217 9231 9251 9275 9301 9327 9354 9383 9414 9443 9466 9484 9499
1736.1024 9514 9528 9541 9555 9568 9584 9603 9623 9642 9657 9665 9670 9672
1742.3699 9673 9673 9675 9678 9683 9687 9689 9689 9684 9674 9659 9641 9623
1748.6375 9609 9600 9595 9593 9594 9598 9606 9618 9631 9646 9660 9674 9688
1754.9049 9703 9717 9732 9746 9758 9769 9779 9789 9801 9814 9827 9839 9848
1761.1725 9852 9852 9852 9852 9855 9857 9859 9860 9860 9860 9861 9863 9865
1767.4399 9867 9868 9869 9870 9873 9877 9882 9887 9889 9886 9879 9873 9871
1773.7075 9872 9875 9880 9884 9887 9889 9889 9888 9885 9883 9880 9878 9877
1779.9750 9877 9878 9880 9882 9883 9884 9884 9884 9886 9889 9893 9899 9903
1786.2426 9905 9905 9902 9897 9894 9892 9892 9895 9899 9902 9903 9902 9898
1792.5100 9894 9893 9894 9896 9898 9898 9897 9895 9895 9897 9901 9905 9907
1798.7776 9906 9902 9898 9894 9893 9893 9893 9892 9890 9889 9889 9891 9893
1805.0450 9893 9892 9888 9882 9876 9872 9871 9873 9877 9881 9883 9883 9881
1811.3126 9879 9877 9877 9879 9880 9882 9884 9887 9890 9892 9893 9893 9893
1817.5801 9893 9893 9894 9895 9893 9889 9885 9882 9883 9890 9901 9915 9929
1823.8477 9938 9940 9932 9917 9900 9887 9881 9881 9886 9895 9906 9913 9914
1830.1151 9906 9894 9886 9882 9885 9892 9902 9912 9920 9922 9920 9914 9905
1836.3827 9896 9889 9887 9890 9896 9905 9914 9921 9926 9927 9926 9923 9919
1842.6501 9913 9904 9891 9877 9867 9864 9866 9871 9877 9880 9880 9879 9878
1848.9177 9880 9886 9893 9901 9906 9907 9905 9902 9900 9900 9900 9898 9893
1855.1852 9886 9880 9878 9880 9885 9890 9891 9886 9875 9861 9848 9840 9838
1861.4528 9842 9850 9857 9862 9864 9863 9862 9862 9864 9869 9875 9881 9886
1867.7202 9889 9889 9887 9880 9871 9861 9854 9850 9852 9856 9862 9864 9860
1873.9878 9850 9835 9821 9810 9806 9807 9813 9820 9826 9834 9844 9857 9871
1880.2552 9883 9889 9887 9880 9870 9861 9854 9849 9848 9852 9861 9876 9892
1886.5228 9904 9906 9895 9873 9845 9819 9806 9808 9824 9844 9863 9877 9883
1892.7903 9881 9875 9866 9857 9851 9851 9855 9864 9875 9886 9893 9896 9894
1899.0579 9889 9883 9878 9875 9871 9865 9857 9851 9849 9855 9868 9884 9897
1905.3253 9904 9902 9893 9880 9864 9849 9836 9827 9825 9833 9850 9872 9893
1911.5929 9905 9907 9899 9887 9876 9870 9871 9876 9880 9880 9876 9868 9858
1917.8604 9849 9844 9842 9844 9845 9845 9841 9836 9831 9833 9842 9857 9873
1924.1279 9885 9889 9889 9887 9887 9888 9893 9900 9908 9915 9920 9920 9912
1930.3954 9898 9880 9862 9848 9842 9845 9859 9882 9910 9939 9961 9972 9971
1936.6630 9959 9941 9920 9901 9887 9881 9885 9895 9907 9914 9912 9900 9886
1942.9304 9882 9892 9914 9937 9952 9950 9929 9896 9861 9834 9818 9812 9811
1949.1980 9811 9810 9810 9813 9819 9825 9831 9836 9843 9853 9864 9874 9874
1955.4655 9863 9845 9828 9821 9828 9846 9868 9885 9894 9898 9901 9904 9905
1961.7330 9901 9887 9865 9839 9818 9810 9820 9850 9896 9947 9987 10003 9994
1968.0005 9970 9948 9939 9941 9948 9947 9935 9911 9883 9858 9838 9823 9812
1974.2681 9806 9807 9819 9839 9867 9903 9948 9999 10047 10075 10067 10021 9948
1980.5355 9869 9805 9768 9760 9775 9802 9835 9865 9889 9905 9910 9906 9895
1986.8031 9883 9875 9872 9875 9882 9890 9899 9908 9921 9937 9955 9969 9972
1993.0706 9960 9936 9908 9886 9879 9889 9912 9937 9950 9943 9916 9879 9847
1999.3381 9834 9847 9883 9929 9970 9997 10006 10004 9995 9982 9964 9935 9893
2005.6056 9842 9789 9746 9726 9732 9766 9820 9881 9938 9980 9998 9992 9964
2011.8732 9922 9877 9843 9829 9840 9871 9908 9937 9949 9943 9929 9920 9922
2018.1406 9934 9950 9964 9973 9974 9967 9951 9929 9906 9889 9881 9882 9886
2024.4082 9885 9879 9870 9867 9878 9905 9943 9982 10013 10025 10015 9985 9945
2030.6757 9906 9878 9860 9850 9842 9838 9842 9860 9894 9935 9967 9975 9954
2036.9432 9913 9871 9848 9852 9880 9913 9933 9931 9913 9895 9892 9907 9931
2043.2107 9947 9947 9933 9917 9909 9914 9926 9935 9939 9941 9950 9969 9989
2049.4783 9999 9988 9958 9922 9895 9883 9883 9889 9895 9899 9905 9917 9933
2055.7458 9946 9950 9943 9929 9916 9911 9914 9921 9927 9928 9927 9927 9930
2062.0132 9936 9940 9936 9921 9899 9877 9865 9868 9888 9919 9952 9978 9991
2068.2808 9991 9979 9962 9942 9922 9903 9883 9863 9846 9839 9846 9868 9900
2074.5483 9931 9951 9956 9949 9936 9926 9922 9923 9924 9924 9925 9929 9938
2080.8159 9950 9963 9970 9968 9957 9942 9928 9920 9922 9932 9945 9953 9950
2087.0833 9934 9912 9891 9883 9892 9917 9954 9990 10017 10027 10017 9991 9954
2093.3508 9913 9875 9849 9841 9853 9880 9914 9941 9954 9949 9932 9911 9895
2099.6184 9886 9883 9882 9881 9881 9883 9890 9902 9915 9925 9928 9926 9922
2105.8860 9920 9920 9922 9923 9919 9909 9895 9878 9863 9853 9851 9856 9869
2112.1533 9885 9901 9909 9908 9899 9887 9882 9887 9903 9926 9947 9962 9968
2118.4209 9963 9950 9930 9908 9888 9874 9870 9876 9887 9897 9900 9891 9874
2124.6885 9855 9843 9842 9853 9870 9886 9896 9898 9895 9891 9888 9885 9881
2130.9561 9874 9867 9861 9861 9865 9872 9876 9872 9860 9843 9828 9823 9829
2137.2234 9848 9873 9898 9916 9921 9911 9887 9856 9823 9796 9779 9773 9779
2143.4910 9792 9808 9823 9835 9843 9849 9852 9855 9857 9862 9873 9894 9922
2149.7585 9953 9978 9991 9986 9964 9930 9890 9853 9826 9816 9827 9856 9893
2156.0261 9924 9934 9917 9875 9819 9768 9736 9735 9766 9821 9889 9958 10018
2162.2935 10067 10103 10126 10133 10119 10079 10016 9942 9876 9832 9820 9838
2168.0789 9876 9922 9964 9995 10016 10027 10035 10043 10053 10064 10069 10063
2173.8643 10042 10005 9961 9920 9890 9874 9871 9877 9887 9900 9913 9922 9927
2180.1318 9928 9932 9941 9957 9973 9978 9966 9939 9906 9883 9878 9888 9902
2186.3994 9907 9902 9890 9882 9885 9901 9922 9939 9946 9941 9929 9916 9908
2192.6670 9909 9916 9927 9937 9940 9935 9923 9908 9897 9893 9898 9910 9926
2198.9343 9941 9953 9958 9957 9949 9932 9908 9878 9844 9812 9788 9777 9782
2205.2019 9803 9833 9866 9893 9911 9919 9919 9914 9907 9900 9894 9887 9881
2211.4695 9876 9875 9876 9880 9885 9887 9883 9873 9860 9846 9836 9833 9837
2217.7371 9844 9850 9853 9853 9855 9862 9878 9900 9921 9934 9932 9916 9891
2224.0044 9868 9856 9861 9877 9897 9907 9902 9883 9858 9835 9822 9815 9812
2230.2720 9807 9801 9799 9806 9825 9854 9887 9916 9937 9947 9946 9938 9925
2236.5396 9914 9909 9912 9921 9931 9934 9929 9917 9905 9897 9895 9898 9903
2242.8071 9907 9907 9906 9903 9899 9897 9897 9900 9906 9913 9917 9914 9903
2249.0745 9889 9876 9871 9878 9893 9910 9922 9924 9917 9906 9896 9892 9892
2255.3420 9894 9894 9891 9886 9883 9886 9896 9910 9923 9930 9926 9914 9899
2261.6096 9888 9884 9886 9890 9890 9884 9874 9866 9867 9878 9898 9917 9930
2267.8772 9933 9927 9916 9906 9898 9888 9874 9854 9831 9812 9802 9805 9820
2274.1445 9841 9861 9876 9884 9888 9890 9890 9889 9887 9885 9884 9885 9886
2280.4121 9888 9887 9885 9880 9875 9872 9870 9869 9870 9871 9871 9871 9869
2286.6797 9865 9862 9859 9858 9859 9862 9864 9865 9863 9860 9856 9855 9856
2292.9473 9860 9864 9869 9871 9871 9869 9866 9862 9858 9854 9850 9848 9850
2299.2146 9855 9862 9870 9876 9879 9880 9880 9879 9878 9876 9874 9872 9871
2305.4822 9872 9874 9878 9880 9882 9883 9883 9884 9882 9878 9871 9862 9855
2311.7498 9852 9856 9867 9884 9902 9918 9930 9935 9935 9933 9928 9923 9916
2318.0173 9905 9891 9878 9872 9875 9887 9903 9915 9918 9911 9900 9892 9890
2324.2847 9896 9907 9919 9931 9942 9950 9954 9953 9947 9937 9930 9928 9933
2330.5522 9942 9950 9952 9949 9940 9932 9927 9927 9933 9942 9954 9967 9978
2336.8198 9982 9976 9960 9938 9916 9900 9891 9888 9884 9877 9868 9862 9866
2343.0874 9880 9902 9924 9938 9940 9933 9924 9917 9916 9918 9921 9921 9917
2349.3547 9909 9898 9888 9882 9884 9894 9911 9931 9953 9979 10008 10037 10060
2355.6223 10074 10075 10064 10043 10017 9992 9979 9984 10007 10038 10057 10048
2361.4077 10010 9956 9908 9884 9887 9906 9927 9938 9937 9933 9930 9930 9930
2367.6753 9926 9916 9904 9895 9893 9895 9898 9897 9890 9879 9866 9855 9849
2373.9429 9846 9846 9848 9849 9851 9855 9862 9871 9880 9886 9888 9884 9877
2380.2102 9869 9863 9858 9855 9853 9852 9851 9850 9849 9848 9847 9847 9848
2386.4778 9849 9850 9850 9848 9843 9839 9836 9835 9837 9839 9841 9841 9840
2392.7454 9838 9836 9834 9834 9836 9838 9841 9844 9845 9847 9849 9851 9852
2399.0129 9851 9848 9846 9845 9847 9849 9852 9851 9847 9841 9833 9828 9826
2405.2803 9827 9831 9837 9842 9846 9848 9848 9846 9842 9838 9836 9835 9837
2411.5479 9839 9842 9842 9842 9842 9842 9844 9846 9847 9845 9842 9838 9835
2417.8154 9834 9836 9838 9840 9841 9841 9842 9843 9845 9847 9846 9844 9840
2424.0830 9837 9835 9835 9836 9838 9841 9845 9848 9851 9852 9851 9848 9845
2430.3503 9842 9840 9839 9840 9841 9843 9845 9846 9846 9844 9841 9837 9833
2436.6179 9829 9826 9824 9826 9831 9840 9847 9852 9852 9847 9842 9840 9842
2442.8855 9847 9853 9857 9856 9852 9845 9838 9833 9831 9830 9831 9831 9832
2449.1531 9832 9833 9834 9835 9838 9841 9846 9850 9852 9852 9848 9844 9839
2455.4204 9837 9837 9840 9844 9848 9850 9852 9855 9857 9860 9860 9858 9855
2461.6880 9851 9848 9844 9839 9833 9825 9820 9818 9822 9830 9839 9848 9853
2467.9556 9854 9851 9846 9840 9835 9833 9834 9835 9836 9836 9835 9834 9835
2474.2231 9838 9841 9843 9842 9840 9836 9831 9828 9826 9826 9827 9829 9830
2480.4905 9832 9833 9836 9838 9841 9843 9844 9844 9843 9842 9842 9843 9843
2486.7581 9841 9837 9831 9826 9823 9823 9826 9829 9831 9831 9830 9829 9832
2493.0256 9838 9845 9850 9852 9849 9844 9838 9832 9828 9827 9827 9830 9834
2499.2932 9837 9838 9837 9832 9826 9819 9813 9809 9807 9808 9810 9813 9817
2505.5605 9822 9826 9829 9829 9827 9825 9822 9819 9818 9818 9819 9820 9823
2511.8281 9827 9831 9834 9837 9839 9841 9842 9843 9843 9842 9840 9838 9835
2518.0957 9833 9832 9831 9829 9828 9827 9828 9830 9833 9834 9832 9827 9822
2524.3633 9818 9818 9822 9828 9835 9840 9842 9841 9840 9837 9835 9832 9829
2530.6306 9826 9824 9823 9821 9819 9817 9814 9812 9813 9817 9822 9828 9832
2536.8982 9834 9833 9832 9831 9830 9830 9830 9832 9836 9841 9849 9855 9858
2543.1658 9855 9848 9839 9830 9825 9824 9826 9829 9832 9834 9835 9836 9835
2549.4333 9835 9834 9834 9835 9837 9838 9839 9840 9841 9842 9842 9840 9835
2555.7007 9827 9819 9812 9808 9809 9814 9822 9830 9836 9841 9844 9846 9850
2561.9683 9854 9860 9864 9865 9863 9858 9851 9845 9840 9836 9834 9832 9831
2568.2358 9831 9832 9832 9833 9833 9834 9836 9838 9840 9841 9840 9836 9831
2574.5034 9829 9829 9834 9840 9846 9849 9849 9846 9844 9842 9841 9842 9844
2580.7710 9846 9848 9847 9845 9841 9836 9832 9830 9832 9837 9844 9852 9857
2587.0383 9859 9857 9853 9848 9843 9840 9838 9836 9834 9833 9833 9836 9838
2593.3059 9841 9841 9840 9838 9836 9836 9837 9840 9843 9844 9845 9844 9841
2599.5735 9838 9835 9834 9833 9832 9832 9831 9830 9830 9832 9834 9835 9834
2605.8411 9832 9827 9823 9821 9823 9828 9834 9840 9844 9844 9842 9838 9833
2612.1084 9829 9826 9826 9829 9834 9841 9847 9852 9855 9857 9858 9858 9858
2618.3760 9858 9856 9854 9851 9849 9848 9848 9848 9846 9843 9840 9837 9835
2624.6436 9836 9839 9841 9843 9843 9842 9841 9841 9843 9846 9848 9849 9849
2630.9111 9847 9845 9844 9844 9846 9847 9849 9849 9849 9848 9846 9843 9840
2637.1785 9837 9835 9835 9836 9839 9843 9848 9852 9854 9854 9852 9848 9844
2643.4460 9842 9840 9838 9837 9837 9836 9836 9838 9840 9842 9843 9843 9840
2649.7136 9837 9833 9829 9827 9827 9827 9829 9831 9832 9833 9833 9832 9831
2655.9812 9831 9832 9834 9836 9839 9841 9842 9843 9843 9842 9841 9841 9841
2662.2485 9843 9844 9844 9843 9842 9841 9840 9839 9839 9840 9839 9839 9839
2668.5161 9839 9839 9840 9841 9841 9841 9839 9836 9832 9829 9827 9829 9832
2674.7837 9836 9839 9841 9841 9840 9839 9838 9838 9839 9841 9843 9845 9846
2681.0513 9845 9843 9840 9837 9835 9833 9834 9835 9838 9841 9844 9846 9848
2687.3186 9848 9847 9846 9844 9843 9842 9841 9841 9842 9843 9843 9843 9841
2693.5862 9839 9838 9837 9837 9838 9839 9839 9839 9839 9840 9842 9843 9844
2699.8538 9843 9843 9842 9841 9842 9843 9844 9845 9847 9848 9849 9850 9851
2706.1213 9851 9850 9848 9845 9843 9842 9842 9843 9844 9844 9843 9840 9838
2712.3887 9836 9835 9836 9837 9838 9839 9840 9841 9842 9843 9843 9843 9842
2718.6563 9840 9839 9839 9839 9841 9842 9844 9845 9846 9848 9849 9850 9851
2724.9238 9850 9848 9845 9842 9840 9840 9841 9843 9845 9847 9848 9848 9847
2731.1914 9844 9841 9838 9836 9835 9836 9837 9838 9839 9841 9842 9843 9845
2737.4587 9848 9849 9849 9848 9847 9847 9848 9849 9851 9853 9854 9855 9856
2743.7263 9856 9856 9855 9853 9852 9851 9851 9851 9850 9848 9846 9844 9843
2749.9939 9843 9845 9849 9853 9856 9858 9860 9861 9862 9863 9863 9862 9860
2756.2615 9858 9856 9856 9857 9858 9859 9860 9860 9859 9859 9859 9859 9859
2762.5288 9859 9858 9857 9856 9855 9854 9852 9851 9851 9850 9850 9851 9854
2768.7964 9858 9862 9865 9866 9864 9861 9859 9858 9859 9862 9865 9866 9864
2775.0640 9860 9855 9850 9847 9845 9847 9850 9854 9858 9862 9865 9867 9867
2781.3315 9866 9863 9861 9858 9857 9856 9856 9857 9857 9858 9859 9860 9861
2787.5989 9861 9861 9860 9857 9854 9850 9847 9845 9843 9843 9843 9844 9844
2793.8665 9843 9842 9841 9841 9842 9845 9848 9851 9853 9855 9857 9857 9857
2800.1340 9856 9854 9851 9848 9846 9844 9844 9846 9847 9849 9850 9849 9847
2806.4016 9845 9844 9843 9843 9843 9843 9841 9839 9838 9838 9839 9840 9841
2812.6689 9840 9838 9836 9835 9836 9838 9842 9845 9846 9845 9842 9839 9835
2818.9365 9832 9830 9830 9829 9828 9826 9823 9821 9821 9824 9830 9836 9840
2825.2041 9840 9836 9830 9822 9815 9808 9804 9802 9802 9803 9803 9801 9797
2831.4717 9791 9785 9779 9775 9771 9770 9771 9775 9781 9787 9793 9797 9798
2837.7390 9797 9796 9795 9796 9798 9800 9801 9801 9801 9800 9799 9799 9799
2844.0066 9799 9798 9797 9797 9796 9796 9795 9793 9792 9790 9790 9789 9789
2850.2742 9789 9789 9788 9788 9788 9787 9784 9779 9773 9767 9762 9759 9757
2856.5417 9756 9756 9756 9755 9753 9748 9742 9734 9727 9719 9713 9706 9698
2862.8091 9689 9679 9668 9657 9646 9638 9632 9630 9630 9634 9639 9645 9651
2869.0767 9657 9662 9665 9667 9667 9668 9669 9670 9672 9674 9676 9678 9680
2875.3442 9684 9689 9696 9704 9711 9718 9724 9730 9736 9741 9746 9750 9753
2881.6118 9754 9754 9753 9751 9749 9748 9747 9747 9745 9743 9738 9733 9726
2887.8792 9719 9712 9707 9702 9697 9692 9688 9683 9678 9675 9672 9671 9670
2894.1467 9669 9667 9663 9657 9649 9641 9634 9628 9624 9621 9619 9616 9611
2900.4143 9605 9598 9592 9589 9591 9596 9603 9610 9616 9620 9624 9628 9632
2906.6819 9637 9642 9647 9650 9653 9656 9659 9662 9663 9662 9661 9659 9659
2912.9492 9659 9660 9661 9661 9660 9659 9659 9660 9661 9663 9664 9665 9666
2919.2168 9667 9671 9675 9680 9683 9684 9681 9677 9672 9669 9670 9673 9679
2925.4844 9683 9686 9686 9685 9683 9683 9684 9685 9686 9686 9685 9682 9680
2931.7520 9678 9676 9674 9672 9671 9672 9675 9678 9681 9683 9683 9683 9681
2938.0193 9680 9679 9679 9677 9675 9670 9664 9656 9649 9642 9636 9630 9624
2944.2869 9618 9613 9607 9600 9594 9588 9582 9576 9571 9566 9561 9557 9554
2950.5544 9553 9555 9561 9569 9579 9591 9603 9613 9621 9626 9628 9627 9625
2956.8220 9621 9617 9612 9608 9605 9601 9597 9594 9592 9592 9593 9595 9596
2963.0894 9594 9589 9583 9576 9570 9565 9560 9555 9550 9545 9541 9540 9543
2969.3569 9551 9565 9583 9602 9622 9640 9653 9664 9670 9676 9681 9687 9695
2975.6245 9704 9715 9727 9738 9749 9758 9767 9774 9781 9787 9794 9800 9807
2981.8921 9813 9818 9822 9825 9826 9827 9827 9826 9826 9825 9826 9826 9825
2988.1594 9823 9819 9815 9812 9810 9809 9811 9813 9818 9823 9829 9836 9843
2994.4270 9849 9854 9858 9860 9859 9858 9856 9855 9854 9856 9858 9863 9868
3000.6946 9872 9876 9876 9874 9869 9862 9856 9853 9852 9853 9856 9856 9855
3006.9622 9851 9844 9838 9833 9831 9833 9837 9843 9849 9852 9852 9849 9844
3013.2295 9838 9835 9834 9835 9836 9838 9841 9843 9845 9846 9847 9846 9845
3019.4971 9845 9847 9850 9853 9854 9854 9852 9851 9850 9850 9849 9847 9844
3025.7646 9842 9840 9839 9838 9836 9834 9832 9833 9837 9842 9848 9854 9857
3032.0322 9859 9859 9861 9863 9866 9869 9873 9875 9875 9875 9874 9874 9874
3038.2996 9875 9875 9874 9873 9871 9870 9870 9871 9871 9870 9869 9867 9866
3044.5671 9867 9869 9873 9875 9876 9874 9870 9865 9861 9858 9858 9860 9863
3050.8347 9865 9868 9870 9871 9872 9874 9875 9877 9879 9880 9881 9882 9882
3057.1023 9881 9880 9879 9878 9877 9877 9876 9876 9876 9876 9878 9880 9883
3063.3696 9886 9888 9888 9885 9879 9872 9864 9856 9851 9847 9847 9850 9854
3069.6372 9857 9860 9862 9864 9867 9870 9874 9877 9880 9882 9884 9885 9886
3075.9048 9887 9888 9889 9890 9889 9889 9887 9886 9885 9885 9886 9887 9886
3082.1724 9884 9881 9879 9879 9881 9885 9890 9893 9894 9894 9894 9894 9896
3088.4397 9899 9902 9905 9906 9906 9904 9902 9899 9896 9895 9895 9897 9898
3094.7073 9899 9900 9902 9905 9910 9914 9916 9915 9910 9904 9900 9899 9901
3100.9749 9905 9909 9912 9911 9909 9904 9900 9898 9898 9899 9902 9905 9906
3107.2424 9907 9905 9903 9900 9898 9897 9898 9900 9903 9906 9907 9906 9904
3113.5098 9901 9900 9900 9902 9905 9907 9908 9907 9903 9899 9895 9892 9892
3119.7773 9894 9897 9901 9906 9910 9914 9917 9919 9917 9914 9910 9907 9905
3126.0449 9906 9906 9905 9902 9897 9891 9887 9886 9889 9895 9901 9907 9909
3132.3125 9910 9908 9906 9905 9905 9905 9905 9906 9907 9908 9909 9911 9911
3138.5798 9910 9909 9906 9904 9901 9899 9897 9894 9891 9887 9883 9877 9873
3144.8474 9870 9870 9873 9879 9886 9894 9900 9904 9905 9904 9902 9900 9897
3151.1150 9894 9890 9886 9882 9878 9876 9874 9874 9875 9878 9882 9886 9890
3157.3826 9893 9894 9894 9893 9890 9886 9882 9879 9878 9879 9882 9886 9889
3163.6499 9890 9891 9891 9892 9893 9892 9889 9883 9876 9870 9868 9870 9875
3169.9175 9880 9881 9878 9872 9867 9865 9866 9870 9876 9881 9886 9888 9889
3176.1851 9889 9888 9886 9884 9884 9884 9886 9888 9888 9885 9881 9876 9873
3182.4526 9872 9875 9878 9881 9882 9881 9879 9877 9877 9877 9877 9877 9875
3188.7200 9874 9873 9874 9876 9878 9878 9877 9873 9868 9863 9859 9857 9857
3194.9875 9860 9863 9865 9866 9865 9865 9865 9866 9867 9867 9865 9861 9857
3201.2551 9853 9851 9851 9854 9857 9860 9862 9861 9860 9857 9855 9856 9858
3207.5227 9862 9865 9868 9869 9871 9873 9876 9880 9883 9883 9881 9876 9870
3213.7900 9862 9856 9854 9855 9861 9868 9874 9878 9879 9878 9875 9871 9866
3220.0576 9861 9857 9854 9854 9854 9854 9852 9849 9844 9839 9836 9835 9837
3226.3252 9839 9843 9848 9854 9860 9865 9867 9867 9864 9860 9855 9851 9849
3232.5928 9847 9846 9845 9844 9844 9847 9852 9858 9862 9863 9860 9856 9852
3238.8601 9851 9853 9857 9862 9865 9868 9869 9870 9870 9869 9867 9863 9859
3245.1277 9855 9852 9851 9851 9851 9851 9850 9847 9845 9844 9844 9847 9852
3251.3953 9855 9857 9854 9849 9844 9840 9839 9842 9846 9849 9851 9851 9850
3257.6628 9850 9851 9851 9850 9847 9843 9838 9836 9836 9839 9841 9842 9839
3263.9302 9834 9828 9822 9818 9816 9818 9822 9829 9836 9842 9847 9850 9850
3270.1978 9850 9849 9848 9846 9845 9842 9839 9834 9829 9823 9820 9818 9819
3276.4653 9823 9828 9834 9840 9843 9842 9838 9831 9821 9812 9805 9803 9805
3282.7329 9811 9819 9825 9828 9828 9823 9815 9806 9799 9797 9801 9810 9821
3289.0002 9832 9840 9842 9839 9834 9829 9825 9824 9827 9830 9834 9834 9831
3295.2678 9824 9814 9803 9795 9790 9791 9796 9802 9808 9812 9815 9816 9819
3301.5354 9824 9829 9833 9835 9833 9829 9826 9823 9822 9821 9818 9813 9806
3307.8030 9798 9791 9786 9786 9790 9796 9804 9809 9811 9807 9799 9789 9780
3314.0703 9777 9778 9783 9787 9790 9789 9785 9781 9779 9778 9778 9778 9776
3320.3379 9772 9767 9762 9760 9760 9761 9763 9763 9761 9757 9754 9752 9752
3326.6055 9753 9755 9756 9754 9751 9748 9748 9751 9757 9765 9771 9774 9772
3332.8730 9767 9760 9754 9750 9750 9753 9757 9760 9760 9757 9753 9750 9748
3339.1404 9748 9749 9748 9744 9738 9734 9733 9736 9743 9750 9755 9756 9754
3345.4080 9749 9744 9741 9741 9743 9747 9750 9750 9747 9739 9729 9719 9712
3351.6755 9708 9707 9710 9715 9722 9728 9733 9735 9733 9730 9726 9723 9722
3357.9431 9719 9714 9706 9697 9690 9687 9689 9695 9701 9706 9708 9709 9708
3364.2104 9707 9706 9705 9704 9702 9700 9697 9692 9685 9677 9669 9663 9660
3370.4780 9658 9659 9662 9665 9668 9672 9676 9677 9675 9670 9663 9656 9651
3376.7456 9648 9646 9644 9640 9636 9631 9628 9628 9629 9630 9630 9629 9627
3383.0132 9624 9623 9622 9621 9619 9617 9615 9613 9613 9612 9611 9610 9609
3389.2805 9607 9605 9602 9599 9594 9588 9581 9573 9565 9560 9557 9558 9561
3395.5481 9565 9567 9568 9568 9567 9568 9570 9573 9575 9573 9566 9554 9540
3401.8157 9526 9516 9511 9511 9515 9520 9525 9527 9527 9524 9520 9515 9510
3408.0833 9505 9502 9500 9498 9497 9496 9495 9492 9489 9484 9478 9471 9464
3414.3506 9457 9450 9444 9439 9435 9433 9432 9431 9432 9433 9435 9437 9436
3420.6182 9433 9428 9424 9423 9424 9427 9430 9429 9426 9422 9418 9418 9421
3426.8857 9425 9429 9432 9435 9437 9441 9447 9453 9459 9464 9467 9468 9469
3433.1533 9468 9468 9468 9469 9472 9476 9482 9487 9493 9499 9506 9514 9524
3439.4207 9536 9549 9561 9573 9582 9588 9591 9591 9588 9584 9579 9577 9576
3445.6882 9577 9578 9580 9580 9579 9578 9580 9585 9595 9609 9625 9639 9648
3451.9558 9651 9648 9642 9638 9637 9641 9649 9658 9667 9674 9681 9686 9689
3458.2234 9690 9687 9683 9680 9678 9681 9686 9693 9699 9705 9708 9711 9714
3464.4907 9717 9720 9724 9728 9733 9739 9745 9748 9749 9748 9747 9746 9748
3470.7583 9753 9759 9763 9765 9765 9764 9764 9766 9767 9768 9766 9762 9758
3477.0259 9756 9758 9763 9771 9780 9788 9795 9798 9799 9796 9793 9789 9787
3483.2935 9788 9790 9792 9795 9797 9798 9799 9801 9801 9800 9797 9795 9793
3489.5608 9795 9800 9808 9816 9822 9825 9824 9822 9819 9816 9815 9815 9815
3495.8284 9816 9818 9821 9827 9834 9842 9849 9854 9857 9856 9852 9845 9836
3502.0959 9827 9818 9812 9808 9808 9811 9816 9823 9830 9837 9841 9843 9844
3508.3635 9844 9846 9850 9854 9859 9864 9868 9870 9871 9869 9866 9864 9863
3514.6309 9863 9864 9865 9863 9859 9855 9852 9852 9857 9866 9876 9883 9885
3520.8984 9881 9873 9862 9854 9850 9852 9858 9865 9871 9872 9871 9868 9865
3527.1660 9865 9868 9874 9881 9888 9891 9889 9882 9873 9863 9858 9860 9868
3533.4336 9881 9893 9900 9901 9895 9887 9880 9877 9879 9883 9887 9891 9894
3539.7009 9896 9896 9896 9896 9895 9894 9892 9891 9890 9890 9892 9896 9900
3545.9685 9902 9899 9892 9881 9872 9867 9868 9875 9884 9892 9895 9893 9889
3552.2361 9885 9885 9889 9896 9904 9910 9915 9916 9916 9914 9912 9910 9909
3558.5037 9908 9907 9906 9905 9903 9902 9901 9899 9897 9896 9898 9902 9908
3564.7712 9912 9914 9911 9903 9894 9887 9885 9889 9895 9899 9901 9900 9898
3571.0386 9896 9895 9896 9898 9900 9901 9901 9903 9906 9909 9913 9917 9919
3577.3062 9920 9920 9918 9914 9908 9902 9898 9898 9899 9900 9900 9897 9895
3583.5737 9894 9896 9900 9904 9908 9910 9909 9905 9899 9894 9892 9893 9900
3589.8413 9909 9920 9927 9930 9926 9919 9910 9903 9898 9895 9892 9892 9893
3596.1086 9898 9906 9914 9921 9923 9922 9918 9914 9911 9910 9908 9906 9902
3602.3762 9898 9897 9899 9904 9911 9916 9919 9918 9914 9910 9906 9905 9904
3608.6438 9904 9905 9908 9911 9915 9916 9914 9908 9899 9890 9884 9880 9879
3614.9114 9880 9885 9891 9897 9904 9909 9912 9915 9916 9915 9913 9909 9904
3621.1787 9901 9898 9897 9895 9895 9895 9898 9904 9913 9924 9936 9947 9957
3627.4463 9964 9965 9955 9935 9914 9901 9897 9897 9899 9903 9909 9915 9923
3633.7139 9930 9936 9939 9940 9940 9941 9942 9944 9943 9939 9929 9918 9907
3639.9814 9900 9899 9903 9909 9914 9917 9918 9921 9925 9930 9936 9940 9939
3646.2488 9933 9923 9911 9899 9889 9881 9875 9871 9873 9878 9885 9892 9899
3652.5164 9905 9910 9914 9916 9914 9911 9910 9914 9925 9940 9952 9959 9959
3658.7839 9953 9944 9933 9924 9917 9913 9910 9911 9915 9925 9938 9952 9964
3665.0515 9971 9972 9968 9962 9954 9945 9933 9920 9907 9899 9900 9911 9924
3671.3188 9935 9942 9946 9949 9952 9953 9948 9934 9914 9902 9903 9911 9921
3677.5864 9931 9941 9950 9958 9962 9962 9957 9949 9940 9931 9922 9915 9912
3683.8540 9916 9927 9943 9960 9975 9982 9980 9965 9941 9916 9902 9901 9910
3690.1216 9920 9928 9932 9931 9928 9925 9923 9922 9924 9928 9933 9940 9947
3696.3889 9953 9959 9964 9967 9969 9968 9964 9960 9955 9950 9945 9941 9939
3702.6565 9939 9941 9944 9947 9949 9947 9942 9938 9936 9938 9943 9951 9958
3708.9241 9964 9968 9969 9965 9953 9931 9907 9891 9891 9902 9918 9932 9942
3715.1917 9946 9946 9945 9945 9946 9945 9941 9936 9931 9931 9935 9945 9957
3721.4590 9969 9977 9978 9973 9964 9952 9938 9926 9917 9917 9925 9937 9946
3727.7266 9950 9949 9947 9948 9953 9961 9970 9973 9969 9960 9954 9956 9965
3733.9941 9976 9984 9983 9972 9957 9942 9931 9923 9918 9917 9918 9919 9920
3740.2617 9921 9923 9929 9939 9953 9968 9980 9978 9953 9918 9900 9902 9916
3746.5291 9935 9954 9970 9977 9970 9950 9926 9909 9904 9907 9914 9922 9931
3752.7966 9939 9945 9948 9948 9945 9940 9935 9931 9931 9934 9937 9939 9943
3759.0642 9947 9951 9955 9955 9953 9949 9945 9942 9941 9942 9942 9940 9936
3765.3318 9932 9931 9934 9941 9949 9957 9961 9960 9952 9940 9929 9924 9924
3771.5991 9930 9938 9946 9953 9956 9955 9951 9945 9940 9939 9941 9945 9950
3777.8667 9952 9950 9942 9933 9927 9926 9929 9933 9936 9936 9934 9930 9927
3784.1343 9926 9928 9930 9933 9935 9936 9937 9938 9938 9937 9937 9938 9940
3790.4019 9944 9949 9952 9952 9950 9945 9941 9939 9940 9941 9941 9939 9935
3796.6692 9930 9928 9929 9933 9937 9940 9941 9938 9928 9914 9902 9899 9904
3802.9368 9915 9928 9940 9951 9959 9962 9958 9948 9939 9934 9934 9937 9940
3809.2043 9941 9941 9941 9940 9940 9941 9941 9942 9944 9947 9950 9952 9951
3815.4719 9947 9941 9938 9939 9942 9945 9947 9945 9938 9924 9905 9889 9885
3821.7393 9893 9904 9915 9923 9929 9934 9939 9944 9949 9954 9956 9956 9955
3828.0068 9952 9949 9947 9945 9943 9938 9931 9924 9919 9919 9922 9925 9927
3834.2744 9928 9930 9934 9940 9945 9945 9940 9930 9921 9918 9918 9920 9922
3840.5420 9923 9926 9931 9937 9944 9949 9950 9945 9938 9931 9927 9927 9929
3846.8093 9933 9937 9939 9940 9939 9940 9942 9947 9954 9962 9971 9977 9977
3853.0769 9965 9946 9932 9927 9928 9930 9933 9933 9933 9934 9938 9945 9952
3859.3445 9957 9956 9949 9936 9923 9915 9915 9920 9927 9930 9927 9920 9915
3865.6121 9916 9923 9934 9944 9954 9959 9960 9954 9942 9932 9928 9930 9935
3871.8794 9941 9945 9944 9938 9928 9920 9916 9917 9921 9924 9927 9931 9936
3878.1470 9946 9958 9970 9977 9972 9957 9941 9931 9926 9928 9932 9937 9941
3884.4146 9941 9938 9933 9928 9925 9925 9927 9930 9936 9941 9945 9944 9937
3890.6821 9925 9914 9911 9916 9924 9930 9932 9929 9925 9923 9924 9930 9939
3896.9495 9949 9957 9960 9957 9949 9938 9928 9919 9913 9909 9908 9911 9915
3903.2170 9920 9922 9920 9915 9910 9909 9913 9921 9929 9937 9943 9946 9949
3909.4846 9950 9950 9949 9948 9946 9944 9942 9940 9939 9938 9936 9935 9933
3915.7522 9930 9927 9925 9924 9924 9925 9925 9925 9925 9926 9929 9933 9937
3922.0195 9940 9940 9936 9929 9919 9910 9905 9906 9912 9919 9927 9931 9932
3928.2871 9929 9925 9924 9925 9930 9936 9941 9943 9940 9935 9927 9920 9915
3934.5547 9912 9911 9913 9917 9922 9927 9930 9932 9932 9933 9934 9936 9938
3940.8223 9941 9942 9943 9943 9942 9942 9943 9945 9947 9948 9949 9949 9948
3947.0896 9946 9944 9941 9939 9936 9935 9933 9932 9930 9928 9927 9927 9930
3953.3572 9936 9943 9951 9958 9962 9962 9958 9952 9944 9936 9932 9931 9933
3959.6248 9934 9935 9934 9930 9927 9926 9928 9932 9937 9941 9944 9943 9941
3965.8923 9937 9935 9934 9935 9936 9936 9935 9933 9930 9930 9933 9937 9941
3972.1597 9942 9940 9935 9930 9926 9924 9925 9928 9932 9937 9942 9946 9948
3978.4272 9947 9945 9942 9938 9937 9936 9938 9941 9945 9949 9950 9949 9945
3984.6948 9940 9935 9934 9936 9941 9947 9952 9954 9954 9952 9949 9947 9944
3990.9624 9942 9939 9935 9931 9927 9925 9923 9924 9926 9930 9934 9938 9939
3997.2297 9938 9935 9932 9930 9931 9935 9939
##END= 
