##TITLE= INC34
##JCAMP-DX= 4.24
##DATA TYPE= INFRARED SPECTRUM
##ORIGIN= JASCO
##OWNER= 
##DATE= 22/04/12
##TIME= 11:56:51
##SPECTROMETER/DATA SYSTEM= 
##RESOLUTION= 
##DELTAX=   0.48211674
##XUNITS= 1/CM
##YUNITS= TRANSMITTANCE
##XFACTOR= 1.00000
##YFACTOR= 0.0001
##FIRSTX=   599.7532
##LASTX=  4000.1226
##NPOINTS=     7054
##FIRSTY=      0.89282
##MAXY=      1.08869
##MINY=      0.58533
##XYDATA= (X++(Y..Y))
599.7532 8928 8914 8926 8959 9000 9032 9047 9042 9026 9013 9016 9043 9094 9155
606.5029 9212 9254 9276 9286 9290 9291 9292 9290 9288 9292 9311 9347 9392 9433
613.2525 9455 9453 9435 9417 9416 9440 9485 9532 9558 9546 9498 9433 9376 9347
620.0021 9350 9378 9417 9452 9476 9489 9498 9509 9523 9539 9552 9558 9559 9554
626.7518 9546 9536 9522 9504 9480 9454 9427 9405 9388 9377 9369 9358 9342 9322
633.5014 9303 9291 9291 9302 9316 9325 9323 9311 9290 9266 9241 9216 9193 9173
640.2510 9162 9160 9166 9175 9178 9170 9146 9108 9058 8998 8928 8849 8767 8691
647.0007 8636 8617 8639 8697 8775 8856 8930 8991 9043 9088 9127 9166 9212 9275
653.7503 9355 9443 9520 9566 9578 9568 9558 9569 9605 9657 9708 9744 9758 9758
660.4999 9754 9755 9762 9774 9785 9792 9794 9794 9798 9810 9830 9860 9899 9954
667.2496 10035 10148 10245 10250 10198 10149 10119 10104 10100 10098 10090
672.5529 10067 10029 9985 9951 9947 9981 10048 10131 10207 10262 10293 10313
678.3383 10334 10360 10386 10394 10376 10333 10283 10247 10235 10238 10229
683.6415 10185 10104 10015 9963 9988 10093 10248 10398 10494 10521 10501 10473
689.4269 10467 10484 10501 10485 10414 10288 10141 10023 9981 10032 10143
694.7302 10238 10233 10085 9827 9567 9436 9513 9777 10117 10388 10496 10441
700.5156 10304 10185 10142 10169 10217 10237 10219 10186 10176 10204 10259
705.8189 10312 10343 10348 10340 10335 10336 10341 10345 10349 10363 10393
711.1222 10440 10491 10531 10546 10537 10515 10496 10496 10516 10549 10582
716.4255 10603 10603 10584 10556 10531 10520 10528 10551 10579 10595 10591
721.7288 10570 10540 10514 10502 10506 10520 10535 10543 10540 10530 10523
727.0320 10526 10542 10566 10588 10599 10595 10579 10561 10551 10555 10571
732.3353 10588 10596 10587 10566 10541 10523 10519 10527 10542 10553 10554
737.6386 10543 10522 10496 10471 10450 10435 10426 10417 10404 10381 10348
742.9419 10309 10274 10253 10255 10282 10331 10392 10454 10512 10563 10612
748.2452 10663 10718 10774 10824 10860 10880 10887 10886 10883 10881 10879
753.5485 10876 10870 10860 10846 10828 10813 10806 10809 10820 10830 10831
758.8517 10813 10778 10736 10698 10671 10657 10650 10643 10633 10619 10603
764.1550 10590 10577 10562 10541 10513 10482 10452 10428 10413 10398 10376
769.4583 10340 10290 10233 10182 10150 10138 10142 10150 10151 10145 10136
774.7616 10132 10138 10150 10159 10154 10130 10090 10040 9987 9934 9886 9845
780.5470 9818 9812 9834 9883 9955 10043 10135 10222 10297 10356 10401 10433
786.3324 10459 10484 10510 10538 10564 10587 10606 10620 10630 10636 10636
791.6357 10631 10624 10620 10621 10627 10637 10646 10651 10650 10642 10627
796.9390 10604 10578 10553 10536 10531 10539 10557 10579 10601 10620 10635
802.2422 10643 10642 10632 10615 10594 10575 10566 10569 10587 10618 10655
807.5455 10689 10710 10714 10704 10689 10677 10673 10674 10671 10660 10639
812.8488 10617 10602 10600 10608 10618 10622 10616 10602 10586 10573 10565
818.1521 10565 10572 10581 10589 10591 10585 10570 10552 10534 10520 10510
823.4554 10500 10487 10469 10450 10432 10418 10409 10402 10395 10385 10373
828.7587 10358 10343 10329 10318 10309 10300 10289 10277 10267 10264 10269
834.0620 10281 10296 10309 10318 10323 10327 10330 10333 10332 10327 10319
839.3652 10313 10312 10318 10331 10345 10356 10358 10351 10338 10324 10314
844.6685 10314 10323 10336 10347 10351 10348 10339 10328 10316 10301 10280
849.9718 10252 10220 10188 10160 10139 10122 10106 10089 10072 10056 10043
855.2751 10032 10014 9984 9935 9866 9779 9679 9571 9456 9332 9195 9041 8865
861.5426 8671 8465 8264 8091 7973 7936 7993 8142 8364 8629 8900 9148 9348 9488
868.2922 9570 9602 9603 9597 9604 9641 9709 9800 9899 9989 10055 10093 10102
874.5598 10089 10060 10022 9977 9928 9880 9834 9796 9766 9746 9734 9729 9727
880.8273 9728 9729 9730 9731 9731 9731 9729 9721 9701 9663 9603 9520 9415 9292
887.5769 9154 9005 8850 8697 8555 8434 8343 8290 8276 8298 8348 8413 8476 8525
894.3265 8550 8546 8515 8461 8391 8313 8237 8171 8124 8104 8117 8168 8257 8383
901.0762 8540 8719 8907 9092 9264 9417 9546 9651 9734 9798 9847 9884 9913 9937
907.8258 9957 9972 9979 9978 9968 9950 9928 9904 9880 9854 9823 9787 9745 9699
914.5754 9652 9609 9572 9542 9521 9507 9500 9499 9503 9506 9506 9501 9491 9475
921.3251 9458 9441 9427 9418 9416 9423 9440 9467 9502 9540 9579 9613 9643 9668
928.0747 9687 9700 9704 9698 9684 9660 9630 9592 9546 9492 9429 9362 9297 9242
934.8243 9204 9188 9190 9203 9218 9224 9214 9184 9137 9078 9014 8954 8906 8873
941.5740 8858 8859 8873 8896 8925 8959 9000 9049 9106 9169 9232 9288 9332 9360
948.3236 9373 9380 9389 9410 9450 9508 9581 9663 9748 9833 9914 9990 10058
954.5911 10115 10162 10198 10226 10248 10266 10282 10295 10307 10315 10320
959.8944 10317 10305 10283 10251 10214 10175 10134 10090 10041 9988 9934 9886
965.6798 9852 9838 9845 9871 9909 9953 9998 10038 10073 10102 10123 10138
971.4652 10145 10144 10138 10130 10123 10118 10117 10118 10121 10125 10131
976.7685 10139 10150 10162 10171 10176 10171 10158 10136 10106 10070 10027
982.0718 9979 9927 9874 9825 9784 9757 9748 9758 9788 9834 9894 9961 10030
988.3393 10096 10157 10208 10250 10281 10302 10314 10318 10316 10307 10293
993.6426 10272 10249 10225 10203 10186 10175 10169 10164 10159 10148 10129
998.9459 10100 10063 10018 9968 9912 9849 9775 9689 9590 9482 9372 9268 9182
1005.2134 9120 9088 9088 9120 9179 9257 9347 9440 9531 9612 9682 9738 9782
1011.4809 9812 9831 9838 9833 9818 9792 9757 9717 9673 9626 9577 9525 9470
1017.7484 9410 9348 9285 9223 9166 9118 9079 9052 9036 9030 9030 9031 9029
1024.0160 9019 8996 8961 8918 8870 8824 8782 8746 8715 8686 8658 8633 8615
1030.2834 8608 8614 8634 8665 8702 8739 8772 8799 8819 8833 8841 8844 8843
1036.5510 8840 8837 8835 8834 8833 8828 8814 8788 8745 8685 8606 8512 8405
1042.8185 8292 8179 8073 7979 7899 7837 7796 7778 7787 7823 7887 7976 8085
1049.0861 8208 8339 8471 8597 8711 8809 8892 8959 9011 9047 9066 9065 9044
1055.3535 9002 8943 8870 8790 8710 8640 8587 8561 8566 8605 8676 8776 8896
1061.6211 9028 9163 9290 9403 9500 9580 9648 9706 9756 9800 9835 9861 9876
1067.8885 9882 9882 9878 9873 9867 9860 9851 9839 9825 9808 9789 9765 9738
1074.1561 9707 9672 9635 9600 9569 9545 9533 9532 9545 9569 9600 9636 9671
1080.4236 9701 9723 9738 9748 9754 9760 9766 9771 9775 9776 9774 9769 9762
1086.6912 9749 9729 9698 9655 9600 9534 9459 9377 9290 9201 9114 9034 8964
1092.9586 8908 8867 8840 8823 8814 8808 8805 8803 8803 8806 8812 8821 8834
1099.2262 8849 8866 8883 8897 8907 8909 8899 8877 8840 8791 8733 8669 8604
1105.4937 8541 8484 8435 8398 8375 8367 8371 8382 8394 8400 8394 8378 8352
1111.7612 8324 8299 8282 8277 8287 8312 8353 8409 8478 8558 8645 8737 8831
1118.0287 8923 9013 9098 9179 9254 9324 9389 9446 9496 9537 9569 9592 9607
1124.2963 9614 9611 9598 9573 9536 9488 9432 9370 9305 9238 9172 9106 9042
1130.5637 8981 8927 8884 8855 8843 8849 8870 8904 8949 9004 9071 9150 9239
1136.8313 9336 9436 9535 9631 9720 9799 9867 9923 9968 10003 10031 10054 10072
1143.0988 10087 10097 10102 10103 10101 10098 10094 10091 10089 10090 10092
1148.4021 10095 10099 10101 10101 10097 10089 10078 10065 10051 10037 10022
1153.7053 10007 9991 9974 9959 9945 9935 9928 9924 9923 9924 9926 9929 9931
1159.9729 9932 9932 9932 9930 9925 9917 9904 9886 9867 9848 9834 9825 9824
1166.2404 9830 9842 9859 9880 9903 9928 9953 9979 10004 10025 10042 10054
1172.0258 10060 10062 10062 10061 10063 10067 10076 10088 10103 10119 10136
1177.3291 10152 10164 10171 10172 10168 10161 10152 10143 10135 10127 10119
1182.6323 10109 10097 10081 10062 10039 10013 9989 9968 9953 9945 9943 9944
1188.4177 9947 9949 9951 9954 9960 9968 9976 9982 9983 9975 9961 9940 9915
1194.6853 9886 9853 9814 9768 9715 9655 9594 9532 9473 9417 9364 9314 9270
1200.9528 9236 9217 9219 9244 9292 9358 9435 9518 9600 9679 9754 9824 9886
1207.2203 9942 9990 10033 10069 10101 10126 10145 10158 10164 10162 10154
1212.5236 10139 10118 10092 10062 10030 9994 9956 9913 9866 9814 9756 9693
1218.3090 9628 9561 9494 9430 9368 9310 9258 9214 9181 9160 9152 9155 9169
1224.5765 9189 9212 9235 9256 9271 9281 9285 9284 9277 9265 9249 9227 9200
1230.8440 9166 9124 9073 9012 8944 8870 8793 8718 8650 8591 8546 8516 8503
1237.1116 8506 8526 8560 8608 8667 8737 8814 8899 8987 9077 9168 9258 9344
1243.3790 9424 9498 9564 9623 9674 9718 9754 9782 9801 9811 9814 9814 9812
1249.6466 9814 9822 9838 9862 9891 9924 9958 9992 10023 10051 10073 10089
1255.4320 10098 10102 10100 10094 10086 10076 10065 10053 10039 10024 10008
1260.7352 9990 9971 9950 9927 9902 9875 9845 9810 9770 9725 9675 9621 9564
1267.0028 9503 9439 9374 9309 9251 9205 9174 9161 9165 9182 9210 9242 9274
1273.2703 9304 9328 9347 9360 9367 9369 9366 9358 9346 9331 9315 9298 9284
1279.5378 9273 9268 9268 9274 9285 9299 9316 9335 9355 9377 9401 9426 9451
1285.8053 9476 9501 9526 9551 9574 9595 9614 9629 9643 9654 9663 9671 9678
1292.0729 9686 9695 9708 9724 9744 9764 9784 9803 9819 9833 9844 9853 9861
1298.3403 9866 9869 9869 9867 9864 9861 9859 9857 9855 9851 9844 9835 9825
1304.6079 9817 9813 9814 9822 9836 9854 9873 9892 9907 9919 9928 9933 9936
1310.8754 9934 9927 9915 9896 9873 9846 9816 9783 9747 9705 9658 9608 9555
1317.1429 9503 9455 9411 9374 9345 9327 9320 9325 9342 9367 9400 9437 9475
1323.4104 9514 9551 9587 9619 9647 9672 9694 9712 9728 9743 9757 9772 9788
1329.6780 9803 9817 9828 9836 9840 9841 9840 9836 9831 9822 9808 9789 9763
1335.9454 9730 9693 9655 9618 9584 9552 9521 9491 9464 9442 9426 9414 9405
1342.2130 9397 9386 9373 9358 9340 9321 9302 9285 9272 9263 9259 9261 9267
1348.4805 9279 9296 9320 9349 9383 9422 9460 9497 9526 9547 9558 9557 9547
1354.7480 9529 9506 9482 9460 9441 9425 9413 9403 9394 9385 9374 9361 9348
1361.0155 9336 9326 9319 9314 9312 9314 9320 9328 9337 9347 9356 9365 9375
1367.2831 9386 9400 9416 9434 9450 9465 9478 9490 9502 9513 9524 9531 9534
1373.5505 9529 9518 9503 9489 9478 9473 9474 9483 9499 9522 9551 9580 9608
1379.8181 9632 9650 9664 9673 9679 9682 9682 9680 9676 9672 9667 9664 9659
1386.0856 9650 9632 9602 9562 9518 9476 9436 9397 9356 9316 9284 9265 9265
1392.3531 9283 9316 9362 9418 9477 9529 9569 9597 9618 9637 9656 9674 9690
1398.6206 9703 9713 9722 9730 9737 9742 9746 9749 9750 9748 9743 9733 9715
1404.8882 9691 9665 9644 9630 9621 9616 9614 9613 9614 9615 9616 9615 9612
1411.1556 9606 9599 9595 9594 9601 9614 9634 9658 9683 9709 9731 9749 9761
1417.4232 9768 9768 9758 9735 9705 9677 9656 9641 9629 9617 9601 9580 9551
1423.6907 9516 9479 9443 9409 9372 9331 9285 9234 9183 9133 9084 9033 8982
1429.9583 8937 8906 8893 8900 8925 8967 9024 9088 9152 9210 9260 9305 9346
1436.2257 9385 9416 9436 9446 9452 9456 9458 9458 9457 9456 9457 9462 9473
1442.4933 9489 9510 9534 9560 9585 9608 9627 9640 9645 9641 9624 9599 9571
1448.7607 9551 9539 9534 9533 9532 9530 9526 9521 9517 9517 9520 9526 9535
1455.0283 9547 9562 9578 9596 9614 9635 9658 9684 9711 9737 9760 9779 9794
1461.2958 9806 9815 9822 9828 9835 9841 9847 9852 9859 9869 9883 9900 9921
1467.5634 9944 9968 9992 10015 10037 10057 10078 10098 10115 10125 10127 10127
1473.3488 10132 10145 10163 10182 10202 10220 10236 10251 10268 10288 10312
1478.6520 10339 10367 10394 10420 10442 10462 10479 10494 10506 10515 10521
1483.9553 10526 10529 10531 10532 10529 10520 10507 10492 10480 10473 10468
1489.2585 10460 10445 10425 10406 10395 10390 10389 10390 10391 10393 10396
1494.5619 10399 10400 10400 10397 10394 10394 10394 10395 10393 10390 10387
1499.8651 10386 10388 10390 10392 10394 10397 10401 10409 10418 10431 10444
1505.1685 10457 10462 10449 10419 10392 10380 10377 10377 10379 10382 10386
1510.4717 10391 10396 10398 10396 10392 10388 10387 10389 10396 10404 10414
1515.7750 10421 10421 10414 10403 10397 10398 10404 10413 10421 10426 10421
1521.0782 10404 10387 10386 10396 10411 10426 10439 10448 10453 10454 10454
1526.3816 10454 10454 10454 10455 10456 10459 10464 10471 10479 10488 10499
1531.6848 10510 10520 10526 10524 10515 10505 10501 10505 10513 10526 10542
1536.9882 10559 10577 10595 10605 10598 10566 10527 10505 10499 10499 10499
1542.2914 10497 10494 10491 10487 10478 10464 10446 10431 10421 10417 10415
1547.5947 10414 10411 10405 10392 10368 10338 10309 10288 10277 10272 10271
1552.8979 10267 10257 10238 10214 10196 10188 10189 10193 10198 10201 10198
1558.2013 10182 10149 10116 10099 10090 10084 10081 10081 10082 10085 10089
1563.5045 10092 10094 10095 10097 10100 10107 10116 10127 10140 10153 10165
1568.8079 10172 10170 10161 10152 10146 10143 10142 10140 10137 10133 10131
1574.1111 10130 10129 10126 10113 10087 10057 10035 10025 10021 10019 10019
1579.4144 10017 10014 10010 10006 10000 9995 9990 9985 9980 9976 9973 9971
1585.1998 9971 9971 9971 9970 9968 9963 9957 9950 9942 9932 9922 9911 9899
1591.4674 9887 9875 9861 9845 9827 9809 9789 9771 9753 9736 9720 9702 9683
1597.7349 9661 9635 9606 9574 9537 9497 9454 9408 9359 9304 9241 9172 9098
1604.0024 9023 8949 8876 8799 8718 8635 8554 8481 8422 8378 8350 8340 8350
1610.2699 8378 8422 8478 8545 8619 8697 8774 8843 8903 8954 8998 9034 9061
1616.5375 9072 9068 9059 9049 9038 9020 8995 8960 8920 8877 8833 8783 8714
1622.8049 8609 8464 8303 8162 8047 7950 7857 7756 7639 7505 7370 7258 7186
1629.0725 7154 7151 7170 7204 7250 7303 7356 7404 7443 7471 7484 7469 7407
1635.3400 7287 7135 6990 6856 6719 6574 6428 6290 6167 6062 5976 5909 5867
1641.6075 5853 5869 5907 5959 6016 6079 6149 6238 6355 6507 6686 6865 7025
1647.8750 7166 7290 7401 7496 7578 7649 7714 7777 7844 7941 8131 8425 8637
1654.1426 8726 8776 8821 8870 8925 8984 9045 9106 9164 9217 9265 9308 9348
1660.4100 9386 9422 9459 9497 9537 9573 9600 9619 9635 9650 9665 9680 9694
1666.6776 9707 9717 9726 9735 9747 9760 9773 9784 9793 9802 9811 9819 9827
1672.9451 9834 9841 9850 9861 9872 9880 9883 9885 9887 9892 9898 9905 9911
1679.2126 9915 9917 9917 9917 9920 9925 9933 9944 9956 9964 9958 9940 9929
1685.4801 9927 9929 9930 9931 9930 9928 9924 9918 9909 9898 9887 9876 9867
1691.7477 9859 9852 9845 9838 9832 9825 9817 9802 9772 9729 9686 9652 9628
1698.0151 9611 9597 9581 9541 9431 9261 9129 9054 9001 8947 8881 8799 8702
1704.2827 8600 8507 8438 8398 8387 8395 8414 8438 8460 8480 8495 8504 8506
1710.5502 8504 8498 8494 8491 8491 8498 8517 8560 8633 8727 8824 8912 8995
1716.8177 9088 9213 9367 9502 9585 9629 9656 9682 9710 9741 9773 9803 9831
1723.0852 9856 9879 9899 9916 9932 9947 9962 9977 9992 10007 10022 10036 10048
1729.3528 10058 10064 10069 10075 10083 10094 10106 10118 10129 10133 10131
1734.6560 10127 10123 10119 10114 10108 10102 10098 10096 10096 10095 10093
1739.9594 10090 10087 10085 10086 10088 10090 10093 10096 10098 10100 10101
1745.2626 10099 10096 10091 10087 10084 10083 10084 10087 10092 10096 10099
1750.5659 10099 10096 10091 10087 10086 10087 10089 10091 10093 10095 10095
1755.8691 10094 10093 10091 10089 10088 10089 10091 10094 10098 10103 10107
1761.1725 10109 10109 10107 10106 10105 10104 10103 10103 10103 10105 10108
1766.4757 10112 10115 10115 10112 10107 10103 10102 10103 10105 10106 10104
1771.7791 10099 10092 10088 10087 10089 10091 10093 10095 10095 10095 10095
1777.0823 10097 10101 10106 10113 10118 10121 10120 10113 10105 10097 10092
1782.3856 10091 10091 10093 10095 10096 10096 10096 10094 10092 10091 10092
1787.6888 10094 10096 10099 10101 10102 10103 10106 10110 10112 10109 10102
1792.9922 10094 10089 10090 10095 10103 10109 10113 10113 10111 10109 10107
1798.2954 10107 10107 10106 10103 10101 10098 10097 10098 10099 10101 10103
1803.5988 10105 10106 10107 10109 10112 10115 10120 10124 10127 10129 10129
1808.9020 10130 10129 10129 10128 10127 10126 10126 10126 10126 10125 10123
1814.2053 10121 10121 10123 10128 10132 10135 10137 10137 10137 10138 10139
1819.5085 10139 10137 10133 10130 10129 10131 10138 10148 10159 10169 10176
1824.8119 10178 10174 10167 10161 10159 10160 10164 10169 10173 10175 10171
1830.1151 10165 10159 10154 10152 10151 10150 10149 10149 10149 10150 10152
1835.4185 10153 10153 10152 10152 10152 10154 10156 10156 10153 10148 10143
1840.7217 10139 10139 10141 10147 10153 10159 10162 10160 10155 10149 10146
1846.0250 10145 10147 10150 10155 10158 10158 10156 10151 10145 10138 10131
1851.3282 10126 10124 10124 10127 10132 10137 10141 10142 10141 10137 10134
1856.6316 10133 10135 10141 10149 10155 10158 10155 10149 10142 10136 10133
1861.9348 10133 10134 10137 10140 10144 10149 10157 10164 10169 10169 10164
1867.2382 10153 10140 10130 10125 10126 10130 10135 10138 10140 10142 10145
1872.5414 10150 10156 10163 10169 10172 10171 10166 10159 10153 10151 10152
1877.8447 10155 10156 10154 10148 10142 10138 10141 10148 10157 10164 10165
1883.1479 10161 10154 10146 10139 10135 10133 10132 10135 10144 10159 10181
1888.4513 10206 10226 10233 10223 10203 10182 10167 10161 10162 10166 10170
1893.7545 10172 10172 10173 10176 10180 10184 10185 10182 10177 10172 10165
1899.0579 10159 10152 10148 10146 10149 10156 10162 10167 10169 10172 10179
1904.3611 10191 10206 10218 10222 10216 10203 10188 10176 10170 10168 10168
1909.6644 10166 10163 10162 10165 10174 10188 10205 10221 10232 10234 10228
1914.9677 10216 10202 10192 10189 10194 10207 10224 10239 10248 10254 10259
1920.2710 10265 10272 10275 10269 10252 10227 10200 10182 10174 10175 10180
1925.5742 10187 10195 10205 10216 10229 10241 10252 10260 10268 10275 10280
1930.8776 10279 10271 10258 10242 10230 10223 10223 10226 10232 10239 10246
1936.1808 10250 10253 10256 10260 10268 10283 10303 10323 10337 10341 10329
1941.4841 10300 10255 10208 10173 10162 10175 10203 10235 10260 10274 10278
1946.7874 10280 10287 10300 10312 10315 10301 10270 10224 10174 10129 10100
1952.0907 10095 10115 10153 10198 10237 10261 10268 10266 10261 10262 10267
1957.3939 10275 10281 10286 10292 10303 10323 10351 10381 10404 10411 10394
1962.6973 10356 10304 10248 10204 10178 10177 10198 10234 10274 10306 10321
1968.0005 10318 10302 10278 10249 10215 10181 10153 10144 10160 10201 10253
1973.3038 10299 10325 10332 10335 10348 10376 10410 10429 10420 10387 10348
1978.6071 10324 10320 10325 10319 10288 10235 10177 10137 10128 10150 10189
1983.9104 10223 10236 10225 10201 10182 10184 10214 10266 10324 10367 10380
1989.2136 10361 10323 10281 10250 10236 10237 10248 10262 10278 10294 10306
1994.5170 10307 10287 10241 10175 10107 10059 10049 10081 10146 10225 10294
1999.8202 10337 10353 10350 10341 10336 10339 10344 10344 10331 10302 10264
2005.1235 10225 10192 10169 10154 10147 10152 10175 10223 10290 10356 10395
2010.4268 10391 10345 10284 10238 10227 10250 10286 10310 10311 10294 10278
2015.7301 10277 10298 10336 10377 10407 10414 10389 10333 10253 10170 10112
2021.0333 10100 10136 10206 10277 10317 10311 10266 10211 10173 10173 10210
2026.3367 10267 10318 10345 10342 10325 10313 10324 10355 10393 10418 10420
2031.6399 10398 10364 10331 10305 10283 10261 10240 10224 10222 10241 10278
2036.9432 10328 10379 10419 10444 10451 10445 10430 10411 10389 10365 10336
2042.2465 10303 10268 10234 10206 10186 10173 10165 10158 10151 10147 10152
2047.5498 10171 10204 10247 10287 10311 10314 10298 10274 10254 10243 10241
2052.8530 10241 10237 10227 10211 10196 10186 10183 10187 10194 10205 10218
2058.1563 10232 10248 10263 10278 10293 10308 10321 10327 10322 10305 10279
2063.4597 10252 10230 10220 10220 10227 10235 10241 10241 10236 10228 10219
2068.7629 10210 10204 10204 10210 10220 10233 10245 10254 10258 10254 10245
2074.0662 10233 10225 10223 10228 10233 10234 10225 10209 10189 10173 10164
2079.3694 10162 10161 10161 10163 10170 10184 10201 10216 10222 10216 10203
2084.6729 10193 10192 10203 10222 10241 10255 10261 10260 10254 10244 10231
2089.9761 10219 10210 10208 10212 10223 10237 10248 10255 10255 10247 10233
2095.2793 10213 10193 10178 10171 10175 10188 10205 10221 10231 10234 10232
2100.5825 10227 10220 10213 10207 10202 10196 10190 10184 10179 10176 10176
2105.8860 10175 10170 10159 10144 10129 10123 10131 10148 10168 10181 10181
2111.1892 10171 10157 10148 10146 10151 10162 10174 10188 10203 10217 10229
2116.4924 10234 10232 10223 10213 10203 10195 10190 10187 10186 10188 10192
2121.7957 10197 10200 10199 10193 10184 10174 10165 10158 10153 10150 10152
2127.0991 10159 10173 10193 10213 10230 10236 10232 10217 10196 10174 10155
2132.4023 10143 10143 10155 10177 10205 10231 10249 10255 10251 10242 10232
2137.7056 10224 10219 10216 10216 10217 10219 10221 10220 10216 10209 10201
2143.0088 10194 10189 10189 10193 10205 10225 10251 10276 10296 10303 10296
2148.3123 10276 10247 10213 10175 10138 10106 10088 10091 10118 10163 10217
2153.6155 10267 10305 10329 10342 10352 10365 10380 10391 10394 10389 10383
2158.9187 10389 10408 10426 10422 10383 10315 10244 10201 10202 10239 10289
2164.2219 10325 10336 10332 10333 10351 10385 10418 10432 10419 10381 10333
2169.5254 10287 10253 10237 10241 10263 10296 10329 10347 10338 10303 10250
2174.8286 10199 10167 10167 10195 10242 10289 10322 10334 10329 10313 10295
2180.1318 10277 10256 10230 10201 10178 10173 10191 10228 10269 10297 10304
2185.4351 10290 10266 10245 10235 10239 10253 10275 10298 10318 10326 10317
2190.7385 10293 10263 10239 10233 10247 10272 10293 10299 10288 10266 10246
2196.0417 10233 10232 10239 10253 10273 10294 10313 10322 10317 10298 10273
2201.3450 10251 10239 10236 10235 10229 10216 10197 10179 10167 10166 10173
2206.6482 10186 10201 10214 10223 10229 10231 10229 10224 10216 10206 10196
2211.9517 10191 10195 10208 10229 10252 10270 10275 10268 10252 10235 10225
2217.2549 10226 10235 10248 10257 10261 10258 10251 10242 10230 10213 10191
2222.5581 10169 10154 10151 10164 10189 10218 10243 10259 10266 10266 10262
2227.8613 10256 10249 10242 10235 10228 10223 10218 10211 10200 10186 10172
2233.1648 10165 10168 10181 10200 10219 10232 10236 10232 10221 10205 10186
2238.4680 10170 10161 10162 10173 10187 10193 10184 10162 10135 10116 10110
2243.7712 10118 10131 10142 10146 10144 10142 10143 10147 10151 10152 10147
2249.0745 10140 10131 10124 10118 10112 10107 10103 10104 10112 10126 10145
2254.3779 10163 10179 10189 10195 10199 10203 10205 10207 10206 10202 10194
2259.6812 10184 10173 10162 10153 10147 10143 10141 10142 10147 10158 10176
2264.9844 10198 10220 10234 10236 10226 10209 10193 10184 10182 10184 10184
2270.2876 10178 10167 10154 10144 10139 10138 10139 10138 10135 10132 10133
2275.5911 10136 10141 10145 10143 10138 10131 10127 10130 10137 10146 10151
2280.8943 10150 10142 10131 10120 10114 10113 10117 10121 10123 10122 10121
2286.1975 10121 10124 10130 10135 10138 10137 10134 10132 10133 10136 10139
2291.5007 10140 10138 10132 10125 10119 10115 10115 10119 10125 10132 10139
2296.8042 10144 10145 10142 10138 10135 10135 10139 10146 10152 10154 10151
2302.1074 10144 10137 10131 10129 10130 10134 10137 10138 10136 10131 10123
2307.4106 10117 10114 10115 10122 10129 10134 10135 10131 10125 10123 10125
2312.7139 10131 10140 10149 10153 10154 10151 10146 10141 10138 10136 10136
2318.0173 10136 10137 10137 10134 10130 10126 10125 10129 10137 10147 10156
2323.3206 10161 10162 10163 10168 10175 10185 10193 10195 10189 10177 10162
2328.6238 10150 10143 10141 10141 10143 10144 10147 10151 10157 10161 10161
2333.9270 10158 10154 10153 10158 10168 10179 10186 10185 10176 10164 10154
2339.2305 10151 10156 10169 10182 10190 10189 10177 10160 10143 10129 10123
2344.5337 10122 10125 10128 10132 10135 10137 10139 10139 10139 10139 10139
2349.8369 10140 10142 10144 10147 10150 10157 10169 10186 10206 10223 10232
2355.1401 10230 10220 10206 10193 10181 10172 10166 10165 10174 10194 10223
2360.4436 10255 10282 10299 10302 10294 10277 10255 10232 10210 10192 10176
2365.7468 10164 10157 10159 10171 10191 10212 10225 10227 10216 10196 10174
2371.0500 10154 10138 10129 10127 10130 10136 10143 10147 10147 10145 10141
2376.3533 10139 10141 10144 10147 10150 10149 10147 10143 10138 10132 10127
2381.6567 10121 10117 10115 10114 10116 10117 10119 10121 10122 10124 10127
2386.9600 10130 10132 10132 10131 10127 10123 10118 10114 10112 10111 10112
2392.2632 10116 10121 10128 10135 10141 10145 10148 10150 10149 10147 10143
2397.5664 10137 10132 10127 10126 10126 10127 10127 10126 10124 10123 10123
2402.8699 10126 10128 10130 10130 10129 10129 10129 10132 10137 10143 10149
2408.1731 10153 10153 10148 10141 10133 10126 10123 10122 10125 10128 10131
2413.4763 10133 10134 10133 10132 10132 10133 10134 10136 10138 10140 10141
2418.7795 10142 10142 10141 10141 10140 10139 10137 10136 10135 10135 10135
2424.0830 10137 10139 10142 10145 10147 10148 10149 10149 10149 10146 10141
2429.3862 10135 10131 10130 10133 10138 10145 10150 10152 10151 10146 10139
2434.6895 10131 10123 10118 10116 10117 10121 10127 10134 10139 10143 10145
2439.9927 10146 10148 10150 10152 10154 10154 10151 10147 10141 10138 10137
2445.2961 10137 10139 10140 10140 10139 10139 10142 10147 10153 10159 10164
2450.5994 10166 10165 10164 10163 10160 10157 10152 10146 10142 10141 10144
2455.9026 10148 10152 10152 10148 10141 10135 10132 10133 10138 10144 10149
2461.2058 10150 10149 10146 10143 10142 10143 10145 10149 10153 10158 10162
2466.5093 10165 10166 10163 10157 10152 10148 10146 10147 10149 10151 10152
2471.8125 10152 10152 10153 10152 10150 10146 10142 10140 10142 10147 10154
2477.1157 10158 10158 10154 10148 10144 10143 10146 10153 10161 10167 10170
2482.4189 10167 10160 10148 10133 10120 10111 10108 10112 10123 10136 10151
2487.7224 10162 10169 10170 10165 10157 10149 10143 10140 10140 10142 10143
2493.0256 10143 10141 10140 10139 10140 10144 10147 10149 10150 10149 10147
2498.3289 10147 10147 10147 10146 10142 10136 10130 10125 10124 10125 10126
2503.6321 10127 10128 10129 10133 10140 10148 10155 10157 10156 10152 10149
2508.9355 10150 10154 10159 10161 10159 10153 10146 10141 10140 10143 10147
2514.2388 10149 10150 10149 10147 10146 10145 10145 10145 10148 10153 10160
2519.5420 10169 10176 10180 10179 10175 10169 10162 10155 10150 10145 10142
2524.8452 10140 10141 10144 10151 10160 10170 10176 10179 10176 10170 10162
2530.1487 10156 10153 10154 10157 10161 10164 10165 10165 10164 10162 10161
2535.4519 10160 10160 10162 10167 10173 10178 10181 10180 10178 10175 10175
2540.7551 10177 10180 10181 10180 10177 10171 10167 10163 10161 10159 10158
2546.0583 10159 10161 10165 10171 10178 10185 10190 10194 10197 10197 10196
2551.3618 10193 10190 10187 10184 10179 10175 10170 10166 10164 10164 10165
2556.6650 10165 10165 10165 10167 10172 10179 10185 10188 10187 10185 10183
2561.9683 10184 10187 10191 10192 10188 10182 10175 10172 10172 10175 10179
2567.2715 10180 10180 10177 10176 10176 10179 10181 10184 10187 10190 10192
2572.5750 10193 10193 10192 10190 10188 10188 10189 10192 10194 10197 10198
2577.8782 10196 10193 10188 10182 10178 10177 10177 10179 10181 10184 10187
2583.1814 10189 10189 10188 10185 10180 10177 10176 10179 10183 10186 10187
2588.4849 10186 10182 10177 10173 10171 10172 10175 10181 10189 10197 10203
2593.7881 10206 10206 10202 10198 10195 10194 10195 10196 10195 10192 10187
2599.0913 10182 10179 10178 10179 10180 10180 10180 10181 10182 10184 10186
2604.3945 10188 10188 10189 10189 10188 10187 10186 10184 10182 10182 10184
2609.6980 10186 10188 10187 10184 10180 10177 10177 10180 10184 10190 10193
2615.0012 10195 10195 10194 10192 10190 10188 10185 10183 10182 10181 10182
2620.3044 10185 10189 10192 10195 10197 10197 10197 10196 10195 10195 10194
2625.6077 10195 10196 10198 10200 10201 10201 10201 10199 10197 10193 10189
2630.9111 10184 10181 10179 10179 10181 10183 10187 10190 10193 10197 10200
2636.2144 10203 10204 10204 10203 10203 10203 10204 10205 10206 10206 10206
2641.5176 10206 10206 10208 10211 10213 10214 10213 10209 10205 10201 10198
2646.8208 10197 10199 10202 10205 10208 10208 10206 10203 10200 10198 10199
2652.1243 10201 10204 10206 10208 10208 10208 10208 10210 10212 10215 10216
2657.4275 10215 10212 10210 10208 10208 10210 10212 10214 10215 10216 10215
2662.7307 10214 10212 10212 10212 10213 10215 10217 10218 10219 10218 10217
2668.0339 10215 10215 10215 10216 10218 10220 10221 10220 10220 10218 10217
2673.3374 10217 10216 10214 10213 10212 10212 10213 10214 10215 10216 10216
2678.6406 10217 10218 10218 10219 10219 10219 10218 10218 10218 10218 10218
2683.9438 10218 10218 10219 10221 10223 10225 10227 10229 10231 10231 10230
2689.2471 10228 10223 10218 10214 10211 10210 10211 10213 10216 10218 10219
2694.5505 10219 10218 10216 10214 10212 10210 10209 10210 10212 10214 10215
2699.8538 10216 10216 10214 10213 10212 10212 10213 10215 10217 10219 10220
2705.1570 10221 10220 10218 10215 10213 10211 10209 10208 10209 10210 10213
2710.4602 10217 10220 10223 10224 10224 10224 10222 10221 10220 10218 10216
2715.7637 10214 10212 10212 10214 10216 10217 10219 10219 10219 10219 10220
2721.0669 10220 10221 10221 10222 10222 10224 10226 10229 10231 10233 10233
2726.3701 10234 10233 10234 10234 10235 10237 10239 10242 10243 10244 10243
2731.6733 10243 10242 10243 10244 10245 10245 10244 10243 10242 10243 10243
2736.9768 10244 10244 10243 10242 10242 10244 10247 10251 10255 10258 10261
2742.2800 10262 10262 10261 10258 10255 10252 10250 10249 10250 10252 10254
2747.5833 10256 10257 10257 10257 10258 10260 10263 10266 10269 10271 10273
2752.8865 10274 10276 10277 10278 10280 10280 10281 10281 10281 10280 10280
2758.1899 10279 10277 10275 10273 10272 10272 10273 10276 10279 10281 10282
2763.4932 10281 10280 10280 10280 10283 10285 10287 10287 10286 10283 10282
2768.7964 10282 10285 10290 10295 10297 10297 10294 10289 10285 10283 10284
2774.0996 10286 10289 10291 10290 10289 10287 10286 10287 10289 10292 10294
2779.4031 10296 10296 10296 10297 10298 10299 10302 10304 10306 10307 10307
2784.7063 10308 10308 10309 10309 10309 10308 10306 10305 10306 10308 10311
2790.0095 10314 10315 10314 10311 10308 10304 10302 10301 10301 10302 10303
2795.3127 10305 10307 10309 10311 10312 10312 10311 10310 10308 10306 10304
2800.6162 10302 10300 10297 10294 10292 10290 10289 10289 10291 10295 10299
2805.9194 10301 10302 10301 10298 10295 10292 10289 10287 10286 10285 10284
2811.2227 10284 10284 10285 10287 10288 10289 10289 10286 10282 10276 10268
2816.5259 10261 10253 10245 10237 10229 10220 10212 10204 10198 10192 10187
2821.8293 10181 10174 10167 10161 10157 10157 10160 10163 10166 10167 10165
2827.1326 10162 10158 10155 10153 10151 10149 10146 10142 10138 10134 10130
2832.4358 10125 10120 10113 10105 10097 10091 10088 10086 10087 10088 10088
2837.7390 10088 10087 10087 10088 10090 10092 10096 10099 10102 10104 10104
2843.0425 10104 10102 10101 10099 10096 10094 10091 10087 10083 10076 10068
2848.3457 10058 10046 10032 10018 10003 9989 9975 9963 9954 9947 9942 9938
2854.1311 9935 9932 9929 9927 9926 9926 9925 9925 9924 9923 9922 9921 9919
2860.3987 9916 9912 9908 9904 9899 9894 9889 9885 9880 9875 9869 9862 9855
2866.6660 9848 9843 9838 9834 9829 9823 9817 9811 9808 9807 9809 9812 9814
2872.9336 9817 9818 9818 9817 9816 9816 9816 9818 9820 9822 9825 9825 9824
2879.2012 9821 9817 9813 9812 9813 9817 9821 9825 9828 9829 9830 9829 9828
2885.4688 9827 9825 9824 9824 9825 9825 9826 9825 9823 9820 9817 9813 9808
2891.7361 9802 9794 9786 9778 9771 9765 9759 9753 9746 9738 9732 9726 9723
2898.0037 9721 9720 9718 9714 9708 9700 9692 9682 9672 9661 9648 9633 9617
2904.2712 9600 9583 9564 9544 9522 9500 9479 9457 9438 9420 9406 9395 9388
2910.5388 9383 9381 9381 9382 9386 9393 9404 9419 9437 9459 9482 9506 9530
2916.8062 9556 9581 9605 9626 9644 9658 9668 9673 9676 9675 9672 9665 9654
2923.0737 9636 9610 9579 9543 9509 9483 9469 9471 9488 9513 9542 9567 9584
2929.3413 9590 9585 9571 9549 9525 9502 9484 9475 9474 9481 9492 9506 9519
2935.6089 9531 9542 9552 9562 9574 9586 9599 9611 9620 9626 9629 9629 9628
2941.8762 9629 9633 9639 9645 9651 9654 9656 9657 9659 9664 9673 9683 9695
2948.1438 9706 9715 9724 9731 9737 9742 9746 9751 9756 9761 9767 9773 9780
2954.4114 9787 9793 9801 9809 9820 9832 9847 9862 9877 9890 9898 9903 9904
2960.6790 9902 9899 9896 9893 9889 9885 9880 9872 9862 9849 9835 9822 9809
2966.9463 9797 9786 9776 9767 9760 9754 9751 9751 9755 9764 9779 9799 9822
2973.2139 9846 9869 9888 9906 9923 9940 9959 9978 9999 10020 10039 10057 10071
2979.4814 10081 10088 10093 10097 10104 10112 10122 10131 10139 10145 10150
2984.7847 10155 10159 10163 10167 10171 10174 10179 10185 10192 10200 10207
2990.0879 10212 10215 10216 10215 10215 10216 10219 10223 10226 10228 10229
2995.3914 10227 10225 10223 10225 10229 10234 10240 10243 10244 10241 10237
3000.6946 10231 10225 10217 10208 10197 10188 10180 10178 10179 10185 10192
3005.9978 10198 10201 10202 10201 10199 10198 10198 10200 10202 10204 10204
3011.3010 10203 10202 10201 10201 10200 10197 10192 10185 10179 10176 10177
3016.6045 10180 10185 10190 10194 10199 10205 10212 10219 10225 10228 10229
3021.9077 10229 10228 10228 10231 10235 10239 10244 10249 10251 10253 10255
3027.2109 10257 10260 10264 10270 10276 10281 10284 10285 10284 10284 10285
3032.5142 10287 10290 10291 10291 10290 10288 10287 10287 10286 10284 10281
3037.8176 10279 10276 10275 10274 10273 10272 10271 10270 10271 10273 10275
3043.1208 10277 10279 10279 10278 10276 10273 10270 10269 10270 10273 10276
3048.4241 10279 10279 10276 10272 10268 10266 10266 10267 10267 10268 10268
3053.7273 10270 10272 10276 10280 10283 10286 10288 10290 10292 10293 10293
3059.0308 10293 10294 10294 10294 10292 10289 10287 10287 10288 10290 10293
3064.3340 10295 10298 10300 10301 10301 10299 10295 10292 10289 10287 10286
3069.6372 10284 10282 10279 10278 10280 10285 10289 10293 10294 10293 10291
3074.9404 10288 10287 10288 10291 10297 10303 10308 10311 10310 10305 10299
3080.2439 10292 10285 10280 10276 10275 10277 10280 10285 10290 10294 10296
3085.5471 10296 10295 10295 10294 10294 10293 10292 10290 10286 10282 10277
3090.8503 10273 10271 10271 10274 10279 10285 10288 10289 10287 10283 10281
3096.1536 10280 10282 10285 10286 10285 10281 10275 10268 10263 10261 10263
3101.4570 10267 10271 10273 10274 10272 10269 10265 10260 10255 10252 10250
3106.7603 10251 10252 10254 10254 10253 10248 10243 10236 10231 10229 10230
3112.0635 10233 10236 10238 10237 10235 10232 10230 10230 10231 10233 10233
3117.3667 10232 10228 10224 10221 10220 10222 10225 10228 10230 10229 10227
3122.6702 10225 10226 10228 10230 10231 10230 10226 10222 10219 10216 10214
3127.9734 10213 10211 10208 10207 10206 10206 10207 10208 10210 10211 10212
3133.2766 10210 10208 10204 10201 10199 10199 10199 10200 10199 10198 10197
3138.5798 10195 10195 10197 10199 10201 10202 10202 10201 10197 10193 10188
3143.8833 10184 10182 10182 10185 10190 10195 10200 10204 10207 10209 10210
3149.1865 10209 10207 10203 10199 10193 10188 10184 10183 10184 10188 10193
3154.4897 10199 10203 10204 10202 10199 10196 10193 10190 10188 10184 10179
3159.7930 10174 10170 10168 10169 10173 10178 10183 10187 10190 10191 10191
3165.0964 10190 10190 10189 10188 10185 10182 10180 10179 10179 10180 10180
3170.3997 10180 10179 10179 10179 10181 10185 10189 10192 10193 10194 10195
3175.7029 10195 10195 10195 10194 10191 10186 10181 10177 10174 10174 10176
3181.0061 10179 10183 10186 10189 10191 10193 10194 10195 10195 10195 10195
3186.3096 10193 10191 10188 10186 10185 10185 10186 10188 10189 10190 10190
3191.6128 10189 10188 10186 10183 10179 10175 10173 10173 10174 10176 10176
3196.9160 10175 10174 10174 10176 10180 10183 10184 10182 10180 10178 10179
3202.2192 10183 10187 10191 10192 10191 10189 10186 10183 10182 10183 10184
3207.5227 10186 10189 10191 10194 10197 10200 10203 10206 10206 10206 10205
3212.8259 10203 10202 10200 10197 10194 10191 10189 10189 10192 10195 10200
3218.1292 10206 10211 10215 10216 10213 10206 10196 10185 10178 10175 10178
3223.4324 10184 10191 10197 10200 10200 10200 10200 10201 10202 10204 10205
3228.7358 10204 10203 10201 10198 10194 10188 10179 10168 10159 10153 10152
3234.0391 10157 10164 10172 10177 10179 10178 10173 10166 10156 10146 10136
3239.3423 10130 10126 10124 10122 10118 10111 10105 10099 10097 10097 10097
3244.6455 10096 10092 10087 10082 10076 10071 10064 10057 10050 10044 10041
3249.9490 10039 10040 10041 10042 10041 10038 10033 10025 10017 10011 10008
3255.2522 10007 10007 10005 9999 9992 9984 9978 9976 9975 9975 9973 9968 9961
3261.5198 9953 9945 9939 9934 9931 9930 9929 9929 9929 9931 9932 9934 9935
3267.7871 9935 9932 9926 9919 9911 9903 9898 9894 9890 9887 9884 9882 9881
3274.0547 9881 9881 9879 9874 9865 9856 9850 9849 9852 9856 9860 9861 9859
3280.3223 9855 9851 9849 9847 9844 9840 9833 9824 9816 9810 9808 9808 9809
3286.5898 9811 9812 9814 9818 9823 9829 9834 9836 9835 9831 9827 9822 9819
3292.8572 9816 9812 9807 9801 9794 9788 9784 9783 9783 9782 9780 9777 9775
3299.1248 9775 9778 9783 9789 9794 9798 9801 9803 9805 9805 9804 9802 9799
3305.3923 9799 9799 9801 9802 9800 9796 9789 9782 9777 9775 9776 9779 9785
3311.6599 9790 9795 9798 9800 9799 9796 9792 9788 9785 9783 9783 9786 9791
3317.9272 9796 9799 9798 9793 9785 9779 9776 9780 9786 9792 9794 9791 9784
3324.1948 9777 9771 9767 9762 9754 9743 9731 9721 9715 9716 9720 9724 9726
3330.4624 9722 9713 9702 9690 9681 9674 9669 9664 9658 9651 9645 9638 9633
3336.7300 9629 9624 9618 9611 9603 9595 9587 9581 9577 9574 9573 9571 9569
3342.9973 9564 9557 9549 9541 9532 9525 9519 9514 9509 9504 9499 9494 9487
3349.2649 9480 9473 9468 9464 9460 9456 9451 9445 9439 9434 9431 9429 9429
3355.5325 9428 9424 9417 9408 9398 9389 9382 9377 9373 9370 9367 9364 9361
3361.8000 9357 9353 9348 9343 9337 9332 9327 9323 9318 9313 9307 9299 9292
3368.0674 9284 9278 9272 9267 9263 9260 9258 9255 9251 9246 9240 9234 9229
3374.3350 9226 9223 9221 9217 9213 9207 9201 9196 9190 9184 9176 9167 9158
3380.6025 9150 9145 9144 9146 9149 9150 9147 9140 9130 9122 9116 9114 9114
3386.8701 9114 9113 9109 9103 9093 9082 9070 9059 9051 9045 9041 9037 9034
3393.1375 9030 9026 9024 9021 9017 9011 9000 8988 8977 8968 8963 8960 8958
3399.4050 8955 8951 8948 8944 8941 8938 8934 8929 8923 8916 8909 8902 8896
3405.6726 8890 8884 8880 8875 8869 8862 8855 8848 8843 8842 8843 8847 8852
3411.9402 8856 8860 8862 8863 8861 8858 8854 8849 8845 8842 8841 8842 8845
3418.2075 8849 8855 8860 8864 8865 8864 8862 8860 8859 8861 8866 8873 8880
3424.4751 8887 8891 8891 8888 8884 8880 8878 8877 8877 8877 8878 8879 8881
3430.7427 8884 8887 8891 8893 8894 8893 8892 8891 8891 8894 8899 8906 8913
3437.0103 8919 8925 8928 8930 8931 8930 8928 8926 8925 8925 8927 8931 8936
3443.2776 8939 8940 8940 8940 8941 8946 8955 8965 8976 8987 8996 9006 9015
3449.5452 9025 9033 9039 9043 9047 9052 9058 9068 9079 9091 9101 9109 9115
3455.8127 9122 9129 9137 9147 9157 9167 9177 9186 9194 9200 9205 9211 9218
3462.0803 9227 9238 9250 9261 9270 9278 9285 9295 9306 9317 9327 9335 9341
3468.3477 9346 9350 9356 9363 9370 9378 9386 9394 9401 9408 9414 9420 9427
3474.6152 9433 9439 9444 9447 9451 9455 9461 9468 9474 9480 9485 9491 9498
3480.8828 9504 9508 9511 9513 9515 9520 9527 9536 9545 9554 9560 9564 9566
3487.1504 9568 9571 9574 9579 9584 9589 9592 9594 9597 9600 9605 9611 9618
3493.4177 9627 9636 9645 9653 9661 9666 9669 9670 9671 9673 9678 9686 9696
3499.6853 9706 9714 9720 9721 9721 9720 9721 9725 9731 9738 9745 9751 9757
3505.9529 9764 9770 9777 9782 9785 9787 9789 9794 9800 9806 9811 9812 9811
3512.2205 9808 9805 9803 9804 9807 9812 9817 9823 9829 9835 9839 9840 9840
3518.4878 9838 9837 9838 9842 9848 9855 9860 9862 9863 9862 9861 9862 9863
3524.7554 9865 9866 9868 9869 9870 9871 9872 9873 9876 9879 9884 9889 9893
3531.0229 9895 9895 9893 9891 9890 9890 9892 9894 9895 9895 9891 9887 9883
3537.2905 9883 9885 9889 9894 9898 9900 9901 9900 9900 9901 9902 9903 9902
3543.5579 9901 9901 9901 9902 9903 9904 9904 9903 9904 9906 9908 9910 9910
3549.8254 9909 9907 9904 9902 9902 9903 9904 9904 9901 9898 9896 9896 9898
3556.0930 9901 9905 9908 9908 9906 9903 9902 9903 9907 9911 9911 9907 9899
3562.3606 9891 9887 9891 9904 9921 9940 9957 9968 9971 9965 9951 9933 9918
3568.6282 9908 9905 9906 9910 9913 9914 9914 9914 9915 9917 9920 9922 9924
3574.8955 9926 9927 9926 9925 9923 9920 9918 9917 9918 9921 9923 9926 9927
3581.1631 9929 9931 9933 9935 9936 9936 9935 9934 9932 9932 9933 9934 9935
3587.4307 9933 9929 9924 9919 9914 9910 9907 9905 9904 9904 9906 9909 9912
3593.6982 9916 9919 9921 9921 9920 9919 9919 9919 9919 9919 9919 9920 9921
3599.9656 9922 9923 9924 9923 9920 9916 9911 9907 9905 9907 9913 9923 9935
3606.2332 9944 9948 9946 9941 9935 9930 9926 9923 9921 9921 9925 9934 9947
3612.5007 9959 9967 9967 9961 9952 9945 9939 9936 9935 9935 9936 9939 9943
3618.7683 9946 9947 9943 9935 9927 9920 9917 9919 9922 9925 9927 9928 9929
3625.0356 9934 9943 9955 9970 9984 9994 9995 9980 9951 9924 9908 9904 9906
3631.3032 9912 9918 9923 9924 9921 9915 9913 9916 9925 9937 9949 9957 9958
3637.5708 9952 9942 9931 9923 9921 9924 9929 9934 9936 9933 9926 9920 9916
3643.8384 9918 9925 9934 9945 9955 9960 9961 9958 9954 9951 9949 9943 9933
3650.1057 9919 9908 9903 9904 9909 9915 9923 9930 9938 9944 9947 9942 9931
3656.3733 9916 9905 9901 9903 9907 9912 9915 9916 9917 9917 9918 9919 9918
3662.6409 9917 9915 9913 9914 9916 9919 9921 9924 9925 9927 9930 9937 9946
3668.9084 9957 9966 9967 9959 9948 9942 9944 9951 9961 9973 9984 9988 9975
3675.1758 9944 9916 9904 9904 9911 9921 9932 9942 9948 9949 9945 9939 9933
3681.4434 9928 9923 9916 9909 9904 9902 9905 9911 9920 9930 9940 9949 9954
3687.7109 9955 9952 9946 9940 9936 9932 9925 9917 9909 9903 9900 9900 9904
3693.9785 9911 9920 9931 9941 9945 9944 9939 9933 9930 9930 9932 9936 9938
3700.2458 9940 9941 9943 9944 9945 9943 9937 9929 9920 9912 9907 9905 9906
3706.5134 9907 9907 9906 9903 9903 9907 9915 9925 9931 9930 9922 9911 9905
3712.7810 9909 9919 9929 9937 9940 9939 9934 9929 9925 9920 9914 9908 9904
3719.0486 9903 9907 9912 9917 9919 9919 9918 9921 9929 9939 9948 9953 9951
3725.3159 9944 9932 9922 9915 9913 9914 9916 9919 9923 9929 9937 9943 9945
3731.5835 9941 9935 9930 9929 9931 9931 9927 9919 9913 9914 9922 9932 9939
3737.8511 9943 9944 9943 9942 9940 9936 9932 9928 9926 9926 9925 9920 9906
3744.1187 9885 9874 9883 9902 9922 9940 9956 9969 9978 9981 9978 9971 9965
3750.3860 9959 9951 9937 9918 9903 9897 9901 9911 9922 9932 9939 9940 9936
3756.6536 9931 9929 9930 9933 9935 9932 9923 9913 9906 9903 9903 9905 9908
3762.9211 9911 9915 9920 9925 9928 9925 9918 9911 9908 9908 9911 9915 9914
3769.1887 9908 9899 9892 9892 9898 9907 9915 9919 9921 9919 9918 9916 9916
3775.4561 9916 9916 9917 9920 9924 9929 9931 9929 9923 9916 9911 9908 9906
3781.7236 9904 9901 9897 9894 9892 9893 9896 9902 9909 9917 9925 9931 9932
3787.9912 9929 9921 9912 9904 9898 9894 9893 9892 9891 9893 9897 9905 9915
3794.2588 9926 9934 9937 9932 9921 9910 9904 9905 9912 9921 9930 9938 9943
3800.5261 9941 9931 9916 9903 9895 9893 9895 9900 9907 9915 9921 9920 9911
3806.7937 9897 9887 9884 9887 9893 9898 9902 9903 9904 9904 9904 9906 9910
3813.0613 9916 9924 9936 9948 9957 9954 9937 9914 9895 9885 9884 9889 9902
3819.3289 9920 9942 9958 9955 9936 9916 9905 9903 9907 9913 9920 9925 9929
3825.5962 9931 9932 9930 9926 9922 9918 9917 9920 9926 9933 9938 9937 9929
3831.8638 9917 9907 9900 9897 9895 9895 9897 9901 9908 9917 9926 9932 9934
3838.1313 9931 9924 9915 9906 9899 9896 9901 9911 9925 9938 9945 9944 9936
3844.3989 9924 9915 9908 9905 9903 9901 9899 9897 9897 9900 9906 9916 9927
3850.6663 9940 9952 9962 9966 9962 9946 9924 9907 9900 9900 9904 9909 9913
3856.9338 9914 9914 9913 9912 9914 9918 9922 9926 9928 9928 9927 9926 9928
3863.2014 9932 9934 9932 9924 9913 9905 9901 9901 9904 9908 9913 9919 9924
3869.4690 9926 9924 9920 9916 9915 9914 9911 9906 9896 9886 9880 9880 9885
3875.7363 9893 9901 9911 9921 9931 9941 9949 9952 9949 9941 9933 9929 9929
3882.0039 9929 9928 9928 9927 9927 9927 9926 9921 9914 9908 9904 9903 9904
3888.2715 9905 9907 9910 9913 9917 9919 9918 9915 9912 9911 9910 9910 9909
3894.5391 9910 9912 9917 9923 9929 9934 9938 9938 9937 9934 9933 9934 9936
3900.8064 9939 9941 9939 9935 9927 9919 9912 9906 9901 9898 9895 9892 9891
3907.0740 9890 9893 9898 9905 9912 9918 9922 9923 9921 9920 9918 9918 9917
3913.3416 9916 9914 9913 9911 9910 9910 9909 9910 9912 9917 9922 9926 9926
3919.6091 9921 9913 9906 9902 9903 9908 9915 9922 9926 9926 9923 9918 9912
3925.8765 9908 9906 9907 9909 9911 9911 9910 9909 9910 9914 9920 9925 9928
3932.1440 9925 9919 9913 9911 9912 9917 9921 9925 9928 9929 9929 9929 9930
3938.4116 9932 9934 9936 9936 9933 9928 9920 9913 9908 9906 9908 9911 9913
3944.6792 9915 9915 9914 9913 9911 9910 9908 9906 9906 9908 9911 9914 9917
3950.9465 9918 9919 9919 9920 9920 9919 9917 9912 9906 9901 9898 9898 9900
3957.2141 9904 9907 9908 9906 9903 9899 9897 9899 9903 9909 9913 9915 9914
3963.4817 9910 9906 9901 9898 9897 9899 9902 9907 9910 9911 9911 9911 9911
3969.7493 9912 9914 9914 9911 9906 9900 9897 9898 9904 9912 9921 9927 9930
3976.0166 9931 9931 9932 9932 9933 9931 9928 9923 9917 9911 9906 9900 9895
3982.2842 9891 9888 9886 9886 9889 9892 9896 9900 9903 9906 9909 9913 9918
3988.5518 9921 9921 9919 9916 9915 9915 9918 9920 9920 9918 9913 9908 9905
3994.8193 9906 9910 9915 9919 9920 9917 9912 9908 9907 9910 9916 9922
##END= 
