##TITLE= STDBENZOCAINA
##JCAMP-DX= 4.24
##DATA TYPE= INFRARED SPECTRUM
##ORIGIN= JASCO
##OWNER= 
##DATE= 22/05/03
##TIME= 15:00:58
##SPECTROMETER/DATA SYSTEM= 
##RESOLUTION= 
##DELTAX=   0.48211674
##XUNITS= 1/CM
##YUNITS= TRANSMITTANCE
##XFACTOR= 1.00000
##YFACTOR= 0.0001
##FIRSTX=   599.7532
##LASTX=  4000.1226
##NPOINTS=     7054
##FIRSTY=      0.51572
##MAXY=      1.33526
##MINY=      0.18295
##XYDATA= (X++(Y..Y))
599.7532 5157 5139 5131 5137 5158 5190 5230 5273 5311 5338 5347 5340 5324 5307
606.5029 5295 5288 5279 5259 5224 5183 5148 5136 5155 5202 5261 5316 5352 5367
613.2525 5369 5366 5366 5371 5386 5414 5459 5524 5605 5693 5779 5869 5976 6120
620.0021 6313 6552 6816 7076 7305 7491 7634 7737 7803 7829 7811 7754 7668 7571
626.7518 7476 7386 7301 7217 7137 7067 7012 6974 6944 6910 6863 6799 6729 6667
633.5014 6624 6601 6588 6569 6533 6476 6405 6324 6230 6115 5979 5836 5723 5684
640.2510 5753 5934 6195 6481 6737 6929 7056 7138 7201 7258 7307 7336 7336 7309
647.0007 7269 7240 7237 7269 7324 7379 7410 7401 7352 7279 7204 7152 7137 7156
653.7503 7194 7229 7248 7250 7245 7244 7249 7251 7239 7208 7163 7118 7088 7079
660.4999 7087 7104 7119 7124 7114 7090 7054 7016 6987 6973 6977 6997 7032 7083
667.2496 7148 7204 7168 7021 6888 6814 6782 6778 6793 6819 6845 6856 6849 6827
673.9992 6801 6781 6771 6768 6764 6756 6746 6736 6728 6717 6696 6665 6628 6598
680.7488 6588 6605 6641 6681 6703 6698 6665 6614 6556 6492 6419 6332 6234 6134
687.4985 6047 5983 5937 5895 5838 5756 5652 5540 5439 5358 5297 5239 5165 5060
694.2481 4920 4759 4592 4436 4289 4141 3973 3778 3567 3375 3240 3193 3239 3365
700.9977 3546 3761 4001 4271 4577 4916 5276 5635 5973 6279 6552 6792 6997 7160
707.7474 7273 7334 7355 7354 7352 7360 7381 7410 7436 7452 7455 7447 7432 7414
714.4970 7396 7377 7361 7352 7356 7375 7409 7451 7490 7516 7525 7515 7494 7473
721.2466 7460 7459 7471 7491 7514 7537 7555 7563 7554 7524 7477 7422 7380 7366
727.9963 7383 7418 7446 7450 7427 7395 7383 7410 7475 7561 7642 7704 7746 7782
734.7459 7828 7898 7989 8090 8186 8259 8298 8300 8273 8234 8203 8190 8187 8171
741.4955 8113 8006 7874 7772 7761 7876 8106 8397 8666 8836 8879 8836 8789 8803
748.2452 8892 9019 9113 9111 8991 8776 8514 8250 8013 7811 7642 7499 7378 7278
754.9948 7203 7147 7101 7044 6955 6815 6620 6385 6143 5934 5780 5685 5639 5620
761.7444 5603 5556 5452 5275 5032 4742 4420 4076 3712 3337 2972 2645 2377 2178
768.4941 2041 1952 1903 1896 1942 2053 2235 2488 2808 3192 3637 4139 4692 5278
775.2437 5874 6456 6997 7477 7883 8206 8444 8603 8691 8725 8721 8695 8660 8622
781.9933 8584 8543 8496 8443 8385 8330 8281 8239 8201 8164 8125 8086 8052 8031
788.7430 8023 8024 8025 8015 7992 7960 7928 7906 7897 7897 7901 7899 7890 7875
795.4926 7856 7839 7824 7814 7811 7816 7830 7850 7869 7882 7882 7869 7846 7818
802.2422 7793 7774 7762 7752 7741 7729 7717 7708 7705 7705 7705 7701 7691 7676
808.9919 7660 7648 7639 7634 7632 7630 7631 7635 7642 7651 7661 7671 7682 7693
815.7415 7705 7719 7734 7750 7766 7779 7787 7787 7777 7760 7739 7717 7697 7679
822.4911 7661 7643 7628 7614 7603 7592 7578 7558 7532 7504 7476 7450 7426 7398
829.2408 7359 7303 7228 7140 7046 6956 6875 6808 6752 6707 6668 6634 6602 6570
835.9904 6533 6483 6412 6314 6184 6021 5826 5600 5345 5061 4751 4418 4075 3737
842.7401 3427 3168 2980 2875 2852 2899 2999 3129 3272 3420 3578 3756 3972 4237
849.4897 4557 4924 5319 5718 6097 6440 6738 6988 7195 7362 7495 7598 7675 7732
856.2393 7774 7804 7825 7840 7850 7862 7881 7912 7958 8017 8087 8163 8244 8326
862.9890 8407 8487 8563 8635 8700 8760 8816 8870 8925 8979 9027 9059 9067 9046
869.7386 8995 8920 8831 8734 8633 8531 8426 8317 8205 8089 7972 7857 7747 7645
876.4882 7551 7464 7382 7302 7221 7138 7054 6972 6896 6831 6785 6765 6777 6820
883.2379 6888 6973 7059 7136 7196 7236 7260 7271 7277 7282 7286 7290 7291 7287
889.9875 7278 7266 7254 7244 7236 7229 7220 7208 7193 7179 7167 7160 7156 7155
896.7371 7154 7153 7150 7143 7135 7124 7114 7104 7097 7092 7090 7091 7094 7097
903.4868 7098 7095 7087 7077 7065 7055 7045 7035 7025 7016 7009 7007 7009 7013
910.2364 7016 7014 7008 7001 6995 6995 6999 7002 7002 6997 6989 6981 6977 6979
916.9860 6985 6992 6997 6999 6998 6996 6994 6995 6998 7003 7009 7015 7021 7027
923.7357 7033 7042 7052 7065 7079 7095 7113 7130 7147 7162 7176 7188 7202 7219
930.4853 7237 7254 7268 7273 7268 7252 7228 7199 7167 7136 7104 7073 7042 7012
937.2349 6985 6961 6941 6924 6909 6893 6876 6860 6843 6828 6814 6800 6788 6777
943.9846 6769 6766 6767 6771 6776 6779 6779 6777 6773 6768 6761 6753 6745 6736
950.7342 6728 6720 6712 6700 6683 6661 6636 6611 6591 6576 6566 6561 6559 6561
957.4838 6565 6572 6579 6585 6586 6583 6577 6570 6564 6557 6547 6529 6501 6465
964.2335 6428 6400 6389 6401 6435 6483 6534 6578 6610 6628 6634 6634 6630 6626
970.9831 6623 6621 6621 6622 6624 6626 6628 6629 6628 6624 6617 6608 6599 6591
977.7327 6587 6586 6587 6590 6593 6593 6590 6584 6577 6570 6566 6564 6566 6570
984.4824 6576 6582 6587 6593 6597 6602 6605 6608 6609 6611 6612 6612 6611 6606
991.2320 6597 6584 6570 6555 6540 6523 6501 6472 6436 6394 6350 6306 6264 6223
997.9816 6185 6148 6112 6078 6045 6012 5979 5944 5908 5872 5837 5805 5775 5748
1004.7313 5721 5694 5666 5634 5601 5565 5530 5494 5458 5418 5371 5318 5257
1010.9988 5193 5130 5070 5015 4962 4911 4859 4805 4751 4697 4641 4582 4520
1017.2663 4454 4385 4315 4247 4180 4117 4058 4007 3968 3945 3945 3969 4020
1023.5338 4099 4205 4337 4492 4668 4858 5057 5258 5453 5639 5812 5970 6114
1029.8014 6245 6360 6459 6542 6608 6659 6699 6729 6750 6763 6769 6771 6772
1036.0688 6772 6773 6772 6766 6753 6735 6713 6691 6671 6654 6641 6631 6623
1042.3364 6615 6606 6593 6579 6564 6549 6536 6525 6516 6508 6500 6492 6483
1048.6039 6473 6463 6453 6444 6435 6428 6424 6422 6423 6426 6430 6434 6437
1054.8715 6440 6444 6448 6454 6459 6461 6457 6443 6417 6377 6326 6263 6194
1061.1389 6119 6042 5963 5885 5805 5726 5648 5572 5501 5435 5373 5316 5260
1067.4065 5203 5146 5087 5028 4971 4915 4862 4811 4762 4713 4666 4621 4579
1073.6740 4541 4506 4475 4447 4422 4402 4385 4372 4361 4353 4348 4346 4350
1079.9415 4360 4375 4396 4420 4447 4476 4507 4537 4565 4592 4616 4640 4665
1086.2090 4690 4716 4742 4766 4789 4808 4823 4833 4839 4841 4841 4842 4845
1092.4766 4851 4857 4862 4862 4857 4847 4832 4814 4795 4775 4755 4732 4706
1098.7440 4674 4635 4590 4540 4490 4441 4396 4353 4309 4261 4206 4143 4070
1105.0116 3991 3905 3814 3721 3625 3529 3432 3334 3232 3128 3021 2912 2807
1111.2791 2711 2629 2568 2532 2525 2552 2612 2705 2826 2965 3111 3250 3368
1117.5466 3453 3499 3504 3469 3400 3304 3189 3064 2935 2809 2688 2576 2475
1123.8141 2387 2315 2262 2229 2219 2233 2273 2342 2443 2580 2752 2957 3192
1130.0817 3448 3718 3992 4265 4528 4779 5015 5237 5446 5646 5837 6019 6189
1136.3491 6346 6489 6617 6732 6833 6919 6986 7033 7060 7068 7060 7040 7009
1142.6167 6967 6915 6853 6785 6712 6639 6567 6496 6427 6360 6294 6230 6167
1148.8842 6106 6046 5985 5924 5861 5798 5733 5666 5597 5525 5449 5368 5283
1155.1517 5194 5101 5004 4908 4817 4736 4673 4631 4612 4611 4622 4634 4639
1161.4192 4631 4605 4561 4502 4428 4341 4242 4131 4008 3875 3733 3585 3433
1167.6868 3280 3127 2978 2836 2704 2588 2492 2424 2389 2396 2452 2564 2739
1173.9542 2983 3298 3683 4130 4631 5171 5736 6305 6858 7377 7847 8258 8611
1180.2218 8908 9158 9367 9541 9683 9797 9886 9953 10003 10036 10055 10061
1186.0072 10056 10042 10020 9993 9962 9930 9897 9864 9829 9794 9757 9717 9677
1192.2747 9637 9598 9561 9525 9490 9455 9419 9380 9338 9294 9249 9208 9175
1198.5422 9150 9133 9124 9120 9119 9120 9122 9124 9127 9128 9129 9128 9128
1204.8097 9127 9123 9113 9095 9066 9026 8974 8913 8843 8766 8684 8601 8521
1211.0773 8449 8388 8339 8304 8282 8272 8272 8282 8298 8318 8338 8353 8362
1217.3447 8363 8357 8341 8316 8280 8233 8176 8108 8030 7942 7844 7738 7626
1223.6123 7512 7396 7280 7164 7046 6925 6803 6680 6557 6436 6317 6199 6081
1229.8798 5962 5845 5728 5614 5503 5395 5290 5188 5089 4992 4897 4805 4715
1236.1473 4628 4544 4466 4395 4331 4277 4232 4196 4169 4151 4140 4136 4137
1242.4148 4141 4148 4154 4159 4160 4157 4149 4138 4122 4104 4082 4057 4029
1248.6824 3997 3964 3929 3892 3853 3811 3766 3719 3672 3625 3579 3534 3488
1254.9498 3439 3388 3334 3279 3224 3170 3117 3067 3017 2966 2916 2864 2811
1261.2174 2757 2701 2644 2586 2530 2475 2424 2380 2343 2315 2292 2272 2245
1267.4849 2206 2153 2092 2034 1985 1948 1920 1901 1886 1873 1861 1849 1839
1273.7524 1833 1830 1830 1835 1845 1861 1882 1910 1943 1979 2016 2055 2096
1280.0199 2139 2186 2238 2297 2362 2434 2513 2601 2699 2808 2928 3061 3208
1286.2875 3371 3551 3749 3961 4181 4407 4636 4870 5111 5362 5623 5893 6169
1292.5549 6449 6726 6991 7234 7445 7615 7739 7815 7847 7841 7807 7755 7694
1298.8225 7628 7556 7476 7381 7267 7133 6981 6816 6645 6473 6305 6145 5994
1305.0900 5854 5725 5603 5480 5342 5173 4956 4686 4372 4044 3743 3516 3403
1311.3575 3436 3626 3968 4433 4978 5557 6131 6674 7170 7609 7987 8302 8557
1317.6250 8760 8920 9047 9149 9231 9296 9349 9391 9426 9455 9481 9504 9526
1323.8926 9548 9569 9588 9607 9625 9642 9660 9677 9693 9709 9722 9732 9739
1330.1600 9743 9744 9741 9735 9724 9708 9687 9663 9637 9610 9582 9553 9520
1336.4276 9483 9443 9402 9361 9320 9278 9235 9193 9155 9128 9113 9111 9122
1342.6951 9147 9183 9229 9282 9339 9399 9458 9516 9571 9620 9659 9686 9697
1348.9626 9691 9666 9626 9571 9502 9422 9331 9234 9131 9022 8904 8774 8632
1355.2301 8481 8321 8150 7960 7749 7517 7267 7004 6728 6436 6128 5808 5487
1361.4977 5173 4879 4621 4423 4311 4296 4373 4529 4751 5023 5331 5658 5991
1367.7651 6319 6631 6916 7162 7362 7519 7641 7737 7816 7883 7943 8001 8067
1374.0327 8145 8235 8330 8423 8513 8602 8689 8772 8848 8914 8968 9011 9047
1380.3002 9077 9103 9126 9147 9167 9184 9198 9210 9219 9227 9231 9231 9222
1386.5677 9201 9168 9134 9112 9109 9128 9169 9235 9329 9449 9586 9729 9870
1392.8352 10009 10151 10303 10469 10635 10779 10887 10963 11014 11050 11071
1398.1385 11074 11054 11012 10960 10904 10848 10788 10721 10645 10562 10468
1403.4418 10357 10221 10056 9875 9704 9563 9457 9378 9316 9268 9231 9207 9195
1409.7094 9193 9198 9207 9218 9230 9243 9259 9278 9301 9327 9356 9388 9421
1415.9768 9455 9488 9519 9548 9576 9605 9638 9671 9702 9727 9749 9769 9791
1422.2444 9816 9844 9875 9907 9937 9961 9979 9993 10001 10004 10000 9991 9975
1428.5118 9949 9908 9843 9754 9646 9532 9415 9292 9155 9007 8856 8718 8600
1434.7794 8497 8389 8241 8022 7745 7480 7267 7085 6902 6700 6475 6237 6009
1441.0469 5811 5663 5576 5559 5621 5760 5965 6207 6451 6665 6835 6958 7046
1447.3145 7121 7209 7324 7461 7607 7754 7902 8049 8190 8316 8420 8498 8555
1453.5819 8600 8636 8667 8695 8719 8739 8753 8757 8748 8729 8707 8685 8664
1459.8495 8645 8627 8609 8591 8571 8551 8531 8508 8476 8424 8350 8266 8190
1466.1169 8129 8074 8015 7945 7858 7760 7656 7553 7453 7347 7218 7043 6813
1472.3845 6579 6446 6456 6565 6739 6975 7291 7685 8104 8460 8699 8833 8904
1478.6520 8946 8977 9000 9011 9011 9001 8987 8974 8962 8952 8943 8935 8929
1484.9196 8924 8918 8912 8904 8895 8886 8879 8872 8863 8849 8828 8803 8781
1491.1870 8766 8757 8750 8743 8735 8728 8723 8720 8717 8711 8702 8690 8678
1497.4546 8667 8652 8632 8604 8574 8545 8520 8496 8468 8434 8395 8351 8307
1503.7220 8264 8221 8173 8114 8024 7882 7709 7572 7476 7387 7290 7184 7078
1509.9896 6978 6883 6786 6680 6559 6436 6331 6266 6246 6264 6316 6415 6621
1516.2571 7036 7695 8431 9021 9410 9662 9853 10040 10273 10584 10929 11161
1522.0425 11225 11209 11178 11145 11098 11024 10916 10785 10650 10518 10384
1527.3458 10235 10068 9894 9732 9590 9468 9356 9252 9153 9059 8969 8873 8766
1533.6133 8650 8545 8463 8401 8351 8308 8272 8244 8225 8212 8196 8157 8078
1539.8809 7990 7930 7893 7861 7825 7788 7753 7724 7696 7665 7627 7588 7554
1546.1483 7530 7515 7507 7501 7499 7497 7496 7494 7489 7483 7479 7477 7478
1552.4159 7481 7484 7485 7482 7474 7465 7458 7455 7454 7456 7461 7470 7477
1558.6833 7462 7413 7371 7346 7333 7323 7315 7306 7295 7281 7260 7230 7187
1564.9509 7133 7073 7012 6955 6904 6858 6812 6756 6669 6537 6379 6233 6109
1571.2184 5990 5862 5719 5565 5417 5290 5196 5152 5190 5363 5675 5992 6178
1577.4860 6239 6230 6189 6131 6059 5978 5889 5798 5708 5619 5532 5446 5361
1583.7534 5278 5196 5115 5033 4951 4869 4788 4709 4632 4556 4481 4408 4337
1590.0210 4269 4206 4148 4095 4049 4011 3981 3960 3948 3947 3957 3979 4012
1596.2886 4058 4117 4187 4268 4359 4457 4562 4672 4787 4906 5029 5156 5292
1602.5560 5440 5598 5763 5929 6092 6254 6422 6597 6780 6962 7137 7299 7450
1608.8236 7594 7730 7853 7958 8043 8110 8162 8203 8231 8245 8247 8241 8229
1615.0911 8211 8176 8102 7972 7819 7688 7588 7500 7407 7303 7189 7073 6966
1621.3586 6868 6775 6671 6544 6393 6245 6124 6032 5957 5885 5809 5718 5609
1627.6261 5487 5368 5266 5184 5117 5057 5004 4959 4926 4907 4899 4899 4908
1633.8937 4933 4995 5124 5331 5561 5755 5919 6081 6253 6435 6619 6800 6978
1640.1611 7155 7334 7510 7678 7828 7958 8066 8155 8229 8293 8352 8413 8480
1646.4287 8551 8611 8652 8674 8685 8689 8689 8687 8683 8678 8675 8672 8662
1652.6962 8611 8481 8346 8263 8201 8142 8079 8010 7936 7859 7782 7706 7632
1658.9637 7560 7488 7416 7346 7274 7193 7090 6957 6806 6663 6542 6437 6333
1665.2312 6221 6100 5978 5864 5759 5652 5523 5356 5162 4983 4839 4712 4576
1671.4988 4422 4264 4121 4003 3901 3798 3665 3489 3300 3158 3084 3054 3046
1677.7662 3052 3079 3135 3231 3369 3532 3692 3831 3942 4032 4112 4219 4444
1684.0338 4889 5370 5646 5784 5889 6003 6139 6305 6498 6714 6939 7160 7369
1690.3013 7562 7743 7915 8080 8237 8383 8517 8638 8752 8873 9028 9236 9453
1696.5688 9610 9700 9757 9802 9848 9904 9991 10136 10296 10394 10442 10475
1702.3542 10511 10554 10606 10668 10735 10799 10856 10907 10954 10996 11033
1707.6575 11066 11096 11128 11164 11205 11247 11287 11320 11348 11372 11397
1712.9608 11424 11455 11492 11532 11568 11597 11621 11644 11678 11730 11798
1718.2640 11856 11891 11912 11931 11957 11992 12036 12089 12147 12208 12268
1723.5674 12325 12375 12419 12461 12502 12546 12592 12637 12681 12724 12767
1728.8706 12814 12865 12916 12959 12990 13010 13025 13043 13073 13132 13225
1734.1740 13313 13353 13352 13338 13321 13307 13294 13285 13280 13278 13271
1739.4772 13251 13214 13168 13122 13078 13032 12977 12909 12828 12738 12648
1744.7805 12558 12469 12379 12288 12193 12091 11979 11863 11752 11654 11563
1750.0837 11468 11357 11230 11102 10993 10906 10834 10770 10709 10653 10600
1755.3871 10552 10505 10457 10407 10360 10318 10284 10256 10233 10213 10195
1760.6903 10175 10147 10110 10072 10041 10020 10007 9998 9991 9984 9978 9974
1766.4757 9973 9976 9982 9992 10001 10010 10018 10027 10037 10050 10063 10071
1772.2611 10067 10054 10042 10032 10027 10022 10018 10012 10006 9999 9994 9991
1778.0465 9990 9990 9992 9993 9992 9988 9981 9971 9961 9951 9941 9932 9923
1784.3141 9914 9905 9896 9888 9881 9877 9876 9879 9885 9895 9909 9924 9939
1790.5815 9953 9964 9973 9979 9983 9986 9992 9999 10007 10016 10024 10028
1796.3669 10028 10026 10023 10022 10023 10025 10026 10025 10021 10016 10011
1801.6703 10007 10003 10001 9999 9998 9996 9995 9993 9991 9991 9993 9994 9995
1807.9377 9995 9993 9990 9988 9987 9987 9986 9985 9983 9981 9980 9979 9977
1814.2053 9974 9970 9966 9963 9960 9958 9956 9953 9949 9946 9943 9941 9939
1820.4728 9935 9932 9929 9926 9925 9924 9924 9924 9925 9925 9924 9923 9923
1826.7404 9925 9929 9936 9945 9952 9954 9948 9937 9927 9920 9917 9916 9915
1833.0078 9915 9918 9925 9934 9943 9950 9953 9952 9949 9945 9942 9938 9935
1839.2754 9933 9933 9936 9941 9948 9956 9965 9976 9988 10000 10007 10004 9993
1845.5428 9978 9963 9950 9939 9930 9922 9916 9911 9907 9903 9901 9900 9901
1851.8104 9904 9908 9914 9922 9931 9938 9942 9940 9933 9924 9915 9910 9911
1858.0779 9916 9921 9923 9920 9913 9903 9892 9884 9879 9879 9881 9885 9890
1864.3455 9891 9890 9885 9879 9876 9880 9890 9904 9917 9923 9921 9912 9901
1870.6129 9889 9877 9865 9854 9845 9838 9835 9834 9835 9837 9842 9848 9855
1876.8805 9860 9863 9861 9855 9846 9836 9829 9828 9833 9844 9855 9861 9859
1883.1479 9847 9829 9810 9796 9789 9788 9791 9794 9797 9799 9803 9809 9816
1889.4155 9821 9821 9813 9797 9778 9762 9752 9750 9754 9758 9759 9753 9743
1895.6830 9731 9721 9712 9702 9693 9684 9677 9672 9671 9672 9675 9681 9687
1901.9506 9692 9692 9686 9675 9662 9649 9640 9634 9630 9626 9622 9616 9611
1908.2180 9607 9607 9610 9614 9616 9611 9596 9573 9546 9519 9498 9480 9461
1914.4856 9435 9401 9358 9312 9267 9229 9206 9203 9222 9262 9315 9375 9436
1920.7531 9496 9549 9595 9634 9669 9700 9726 9746 9756 9758 9754 9748 9743
1927.0206 9740 9736 9729 9720 9711 9712 9728 9759 9801 9841 9872 9888 9893
1933.2881 9892 9888 9879 9862 9835 9801 9767 9742 9728 9726 9731 9741 9753
1939.5557 9767 9781 9793 9804 9817 9835 9859 9885 9907 9915 9907 9884 9850
1945.8231 9813 9781 9762 9757 9766 9785 9808 9831 9846 9850 9841 9826 9813
1952.0907 9809 9818 9840 9868 9896 9917 9927 9927 9917 9899 9878 9856 9836
1958.3582 9820 9808 9798 9793 9795 9806 9825 9847 9865 9870 9859 9835 9807
1964.6257 9785 9778 9791 9816 9844 9858 9850 9822 9787 9759 9748 9758 9784
1970.8932 9814 9838 9846 9836 9812 9782 9760 9754 9771 9805 9846 9877 9887
1977.1608 9873 9846 9817 9796 9786 9782 9780 9778 9778 9776 9771 9757 9739
1983.4282 9722 9715 9722 9735 9745 9743 9727 9707 9692 9686 9687 9686 9679
1989.6958 9670 9665 9667 9674 9678 9671 9654 9636 9625 9621 9620 9614 9599
1995.9633 9578 9563 9566 9594 9645 9709 9773 9819 9838 9826 9791 9746 9705
2002.2308 9679 9669 9668 9664 9651 9630 9614 9618 9651 9707 9766 9805 9809
2008.4983 9787 9758 9744 9753 9779 9806 9821 9820 9807 9791 9775 9758 9739
2014.7659 9722 9714 9724 9754 9797 9833 9848 9834 9797 9750 9709 9684 9677
2021.0333 9686 9703 9724 9745 9764 9779 9787 9786 9776 9762 9750 9747 9757
2027.3009 9775 9789 9791 9774 9740 9699 9663 9643 9644 9661 9684 9701 9710
2033.5684 9713 9723 9746 9784 9827 9863 9880 9876 9856 9828 9803 9786 9779
2039.8359 9782 9789 9799 9808 9815 9818 9819 9820 9820 9823 9826 9829 9828
2046.1034 9819 9800 9773 9743 9716 9697 9691 9697 9712 9731 9749 9757 9751
2052.3708 9730 9697 9661 9635 9625 9634 9654 9674 9684 9679 9662 9638 9616
2058.6384 9604 9603 9613 9628 9643 9653 9661 9668 9678 9692 9705 9713 9710
2064.9060 9697 9679 9664 9655 9652 9651 9649 9647 9647 9651 9660 9671 9680
2071.1736 9684 9683 9674 9661 9645 9633 9628 9632 9643 9656 9665 9667 9662
2077.4409 9654 9645 9638 9633 9627 9621 9615 9611 9614 9622 9636 9651 9663
2083.7085 9669 9668 9660 9649 9641 9639 9645 9660 9680 9701 9716 9719 9710
2089.9761 9691 9668 9648 9636 9632 9634 9638 9641 9643 9645 9645 9643 9637
2096.2437 9627 9617 9612 9616 9628 9645 9659 9665 9662 9651 9637 9621 9609
2102.5110 9600 9596 9594 9596 9597 9597 9596 9593 9591 9592 9595 9600 9602
2108.7786 9600 9590 9573 9554 9536 9524 9523 9530 9543 9556 9563 9561 9548
2115.0461 9528 9506 9486 9470 9460 9455 9454 9457 9465 9477 9491 9505 9516
2121.3137 9521 9520 9514 9508 9503 9498 9493 9482 9466 9447 9433 9430 9438
2127.5811 9451 9460 9457 9440 9417 9398 9390 9394 9404 9410 9406 9391 9371
2133.8486 9353 9347 9356 9379 9410 9442 9469 9485 9489 9483 9467 9446 9425
2140.1162 9414 9419 9445 9488 9538 9581 9608 9612 9597 9570 9542 9521 9511
2146.3838 9510 9513 9514 9509 9498 9488 9486 9495 9515 9540 9562 9573 9573
2152.6511 9566 9558 9558 9571 9596 9627 9651 9658 9644 9612 9572 9536 9513
2158.9187 9508 9518 9540 9567 9595 9621 9643 9662 9677 9688 9691 9687 9678
2165.1863 9669 9668 9674 9685 9693 9694 9691 9691 9703 9729 9761 9791 9810
2171.4539 9816 9810 9797 9778 9752 9718 9682 9649 9628 9623 9632 9646 9655
2177.7212 9651 9633 9604 9572 9545 9527 9523 9532 9550 9573 9595 9608 9608
2183.9888 9595 9572 9549 9536 9543 9571 9613 9654 9681 9684 9668 9640 9614
2190.2563 9595 9584 9576 9569 9561 9558 9564 9580 9603 9624 9637 9638 9628
2196.5239 9612 9595 9580 9568 9556 9547 9540 9538 9541 9546 9548 9542 9529
2202.7913 9510 9494 9485 9489 9506 9532 9563 9591 9611 9618 9611 9592 9565
2209.0588 9538 9515 9499 9489 9483 9480 9478 9479 9486 9503 9529 9559 9583
2215.3264 9595 9592 9580 9570 9570 9583 9602 9615 9614 9596 9570 9544 9527
2221.5940 9521 9525 9531 9534 9534 9535 9539 9553 9574 9596 9613 9614 9598
2227.8613 9569 9535 9507 9493 9495 9507 9522 9536 9546 9551 9553 9555 9559
2234.1289 9564 9571 9579 9586 9591 9593 9590 9584 9576 9569 9565 9564 9565
2240.3965 9565 9562 9553 9540 9527 9519 9520 9529 9546 9563 9576 9579 9575
2246.6641 9567 9562 9563 9570 9579 9584 9582 9573 9558 9542 9527 9518 9514
2252.9314 9517 9527 9541 9555 9562 9557 9542 9524 9510 9507 9515 9530 9544
2259.1990 9554 9556 9555 9554 9554 9555 9557 9559 9561 9562 9564 9564 9563
2265.4666 9561 9559 9556 9554 9553 9554 9557 9561 9563 9562 9558 9553 9549
2271.7341 9548 9550 9553 9555 9558 9561 9567 9576 9584 9587 9585 9580 9573
2278.0015 9568 9564 9560 9553 9543 9531 9521 9514 9512 9513 9516 9519 9522
2284.2690 9526 9531 9539 9549 9558 9564 9566 9565 9562 9558 9558 9562 9571
2290.5366 9585 9603 9622 9641 9656 9664 9665 9662 9658 9657 9662 9674 9691
2296.8042 9708 9720 9727 9730 9730 9733 9740 9750 9761 9771 9779 9785 9790
2303.0715 9796 9804 9817 9834 9854 9876 9901 9928 9956 9986 10014 10039 10059
2309.3391 10075 10088 10100 10113 10129 10146 10163 10178 10191 10201 10213
2314.6423 10229 10253 10288 10329 10373 10415 10452 10487 10521 10555 10585
2319.9458 10607 10621 10629 10639 10660 10695 10742 10792 10839 10882 10923
2325.2490 10969 11021 11078 11133 11177 11209 11227 11240 11251 11262 11273
2330.5522 11281 11291 11308 11338 11378 11424 11467 11503 11533 11559 11582
2335.8555 11597 11595 11575 11545 11521 11521 11554 11618 11698 11771 11816
2341.1589 11825 11806 11773 11735 11691 11635 11564 11480 11387 11286 11172
2346.4622 11048 10926 10821 10745 10705 10703 10742 10820 10932 11067 11209
2351.7654 11345 11468 11578 11672 11750 11820 11893 11983 12087 12185 12252
2357.0686 12283 12299 12333 12400 12484 12542 12542 12482 12393 12314 12269
2362.3721 12255 12249 12228 12181 12116 12052 12002 11968 11941 11907 11856
2367.6753 11786 11703 11611 11512 11407 11293 11174 11057 10946 10848 10760
2372.9785 10682 10610 10542 10480 10421 10365 10312 10261 10211 10165 10124
2378.2817 10086 10050 10014 9976 9937 9897 9858 9820 9784 9749 9715 9685 9658
2384.5493 9635 9615 9598 9583 9570 9559 9548 9539 9532 9527 9525 9525 9526
2390.8169 9527 9526 9524 9519 9514 9509 9506 9506 9510 9515 9522 9527 9528
2397.0845 9527 9523 9519 9517 9517 9518 9519 9518 9514 9507 9499 9493 9490
2403.3518 9492 9498 9505 9514 9521 9528 9535 9542 9548 9553 9557 9561 9565
2409.6194 9569 9575 9582 9592 9603 9617 9631 9644 9656 9667 9678 9688 9700
2415.8870 9712 9724 9736 9746 9756 9765 9772 9777 9780 9783 9785 9788 9791
2422.1545 9794 9797 9800 9804 9809 9813 9816 9817 9817 9816 9816 9815 9815
2428.4219 9816 9816 9817 9819 9822 9825 9826 9826 9821 9814 9805 9795 9786
2434.6895 9779 9774 9771 9772 9776 9784 9792 9801 9807 9810 9809 9806 9802
2440.9570 9798 9795 9794 9795 9796 9797 9798 9800 9801 9801 9798 9794 9786
2447.2246 9776 9767 9759 9752 9748 9744 9741 9737 9734 9732 9731 9732 9732
2453.4919 9733 9734 9735 9738 9743 9750 9758 9762 9763 9759 9753 9746 9742
2459.7595 9741 9742 9743 9746 9749 9753 9758 9764 9769 9772 9775 9778 9782
2466.0271 9787 9790 9792 9793 9793 9793 9796 9799 9805 9810 9813 9815 9815
2472.2947 9815 9817 9823 9833 9844 9855 9861 9864 9863 9862 9862 9865 9869
2478.5620 9873 9876 9877 9878 9880 9884 9892 9903 9913 9921 9927 9931 9935
2484.8296 9939 9945 9953 9960 9965 9967 9967 9967 9967 9970 9976 9984 9994
2491.0972 10004 10013 10020 10026 10031 10037 10045 10053 10059 10061 10058
2496.4004 10051 10046 10047 10055 10072 10094 10117 10137 10151 10159 10161
2501.7036 10160 10156 10152 10149 10150 10153 10160 10169 10178 10187 10193
2507.0071 10194 10190 10182 10172 10163 10157 10155 10158 10164 10171 10179
2512.3103 10186 10191 10196 10200 10203 10204 10205 10204 10202 10201 10202
2517.6135 10203 10205 10206 10207 10208 10209 10210 10212 10215 10216 10217
2522.9167 10216 10215 10213 10211 10209 10207 10207 10207 10208 10208 10208
2528.2202 10207 10204 10199 10192 10183 10173 10162 10151 10140 10130 10119
2533.5234 10106 10090 10071 10052 10036 10026 10020 10017 10012 10003 9991
2538.8267 9978 9968 9962 9960 9961 9962 9962 9960 9957 9956 9958 9961 9963
2545.0942 9962 9957 9949 9941 9935 9936 9943 9956 9973 9992 10011 10027 10041
2551.3618 10053 10064 10074 10086 10098 10110 10122 10134 10148 10166 10187
2556.6650 10210 10236 10262 10288 10315 10344 10376 10410 10443 10474 10498
2561.9683 10515 10523 10524 10517 10504 10484 10458 10426 10388 10346 10302
2567.2715 10257 10214 10176 10143 10119 10101 10087 10076 10063 10048 10030
2572.5750 10011 9992 9974 9957 9942 9928 9917 9906 9897 9886 9874 9862 9853
2578.8425 9846 9844 9843 9842 9838 9831 9822 9813 9808 9806 9808 9810 9811
2585.1099 9808 9803 9797 9792 9789 9787 9787 9788 9791 9795 9800 9806 9812
2591.3774 9818 9824 9831 9838 9847 9857 9868 9882 9896 9913 9929 9945 9960
2597.6450 9973 9983 9992 9999 10005 10011 10019 10028 10038 10048 10058 10066
2603.4304 10074 10081 10090 10099 10108 10117 10124 10128 10130 10131 10131
2608.7336 10132 10134 10138 10142 10147 10152 10157 10160 10162 10161 10158
2614.0369 10153 10145 10138 10131 10126 10123 10122 10121 10121 10121 10121
2619.3403 10120 10118 10117 10116 10117 10118 10119 10118 10116 10111 10104
2624.6436 10096 10090 10087 10087 10090 10094 10099 10102 10104 10104 10103
2629.9468 10101 10099 10095 10092 10088 10087 10087 10090 10095 10100 10104
2635.2500 10106 10107 10107 10106 10105 10105 10107 10109 10112 10114 10116
2640.5535 10117 10119 10122 10127 10133 10138 10140 10141 10139 10136 10132
2645.8567 10130 10129 10128 10127 10125 10121 10115 10109 10101 10093 10085
2651.1599 10080 10077 10077 10080 10083 10085 10084 10080 10073 10065 10057
2656.4631 10051 10045 10040 10033 10026 10019 10011 10002 9993 9982 9970 9958
2662.2485 9945 9934 9924 9916 9908 9901 9894 9888 9884 9881 9879 9876 9871
2668.5161 9865 9860 9855 9851 9848 9845 9842 9839 9836 9836 9836 9838 9841
2674.7837 9845 9848 9852 9857 9863 9869 9875 9882 9890 9897 9905 9914 9924
2681.0513 9935 9947 9959 9971 9981 9990 9999 10006 10015 10023 10032 10040
2686.8367 10048 10055 10063 10072 10081 10090 10097 10103 10107 10111 10116
2692.1399 10121 10126 10130 10132 10133 10133 10133 10135 10137 10140 10142
2697.4431 10142 10142 10142 10143 10144 10145 10145 10146 10147 10150 10155
2702.7463 10161 10167 10171 10174 10174 10175 10176 10178 10181 10185 10189
2708.0498 10194 10199 10204 10209 10215 10221 10228 10236 10245 10254 10262
2713.3530 10269 10275 10280 10285 10291 10297 10303 10308 10314 10321 10329
2718.6563 10339 10349 10360 10370 10379 10386 10392 10397 10403 10408 10414
2723.9595 10420 10425 10428 10431 10434 10440 10448 10458 10468 10477 10484
2729.2629 10489 10493 10498 10504 10509 10513 10514 10514 10512 10511 10511
2734.5662 10512 10515 10517 10518 10516 10512 10505 10499 10493 10489 10487
2739.8694 10486 10485 10486 10486 10486 10485 10485 10484 10485 10486 10487
2745.1726 10488 10486 10482 10476 10472 10469 10469 10472 10476 10478 10479
2750.4761 10478 10476 10475 10475 10475 10475 10475 10474 10472 10469 10466
2755.7793 10464 10463 10465 10468 10471 10475 10479 10483 10487 10489 10490
2761.0825 10489 10488 10486 10486 10488 10490 10492 10494 10496 10497 10499
2766.3857 10501 10503 10504 10504 10504 10504 10504 10506 10508 10512 10518
2771.6892 10526 10536 10545 10554 10562 10569 10576 10583 10591 10600 10609
2776.9924 10618 10627 10636 10645 10653 10660 10666 10672 10678 10683 10688
2782.2957 10693 10698 10704 10709 10713 10716 10716 10715 10713 10711 10711
2787.5989 10713 10716 10721 10726 10730 10734 10738 10742 10745 10747 10749
2792.9023 10751 10752 10753 10755 10756 10757 10757 10758 10759 10760 10763
2798.2056 10766 10771 10775 10779 10780 10779 10777 10775 10774 10776 10778
2803.5088 10780 10780 10778 10775 10773 10773 10776 10780 10785 10791 10797
2808.8120 10804 10809 10813 10813 10810 10806 10802 10802 10804 10807 10811
2814.1155 10813 10815 10816 10818 10821 10825 10830 10834 10838 10841 10841
2819.4187 10839 10836 10833 10831 10832 10834 10837 10840 10844 10847 10851
2824.7219 10855 10859 10864 10870 10876 10882 10889 10896 10904 10911 10918
2830.0251 10924 10928 10928 10926 10922 10918 10913 10909 10906 10903 10902
2835.3286 10900 10898 10895 10889 10881 10873 10866 10863 10865 10870 10877
2840.6318 10882 10885 10883 10878 10871 10863 10857 10854 10853 10853 10852
2845.9351 10849 10842 10834 10824 10815 10806 10798 10791 10784 10779 10775
2851.2383 10770 10765 10758 10751 10744 10738 10733 10729 10723 10716 10708
2856.5417 10699 10690 10682 10673 10664 10655 10645 10633 10620 10605 10588
2861.8450 10571 10554 10539 10525 10513 10502 10491 10480 10469 10458 10448
2867.1482 10440 10435 10432 10432 10433 10435 10439 10445 10455 10466 10478
2872.4514 10487 10492 10492 10488 10483 10478 10474 10470 10466 10461 10453
2877.7549 10444 10434 10422 10409 10395 10380 10364 10347 10330 10314 10298
2883.0581 10281 10264 10246 10228 10209 10190 10168 10144 10116 10085 10051
2888.3613 10015 9978 9938 9896 9850 9803 9758 9716 9682 9654 9630 9604 9574
2894.6289 9538 9499 9462 9434 9423 9432 9465 9520 9593 9680 9773 9867 9955
2900.8965 10033 10099 10151 10190 10217 10236 10249 10259 10268 10278 10286
2906.1997 10293 10297 10297 10295 10292 10287 10281 10275 10269 10262 10254
2911.5029 10245 10235 10224 10210 10195 10180 10165 10152 10139 10126 10111
2916.8062 10094 10075 10057 10040 10025 10010 9992 9970 9945 9919 9897 9879
2922.5916 9867 9858 9848 9836 9819 9798 9774 9749 9723 9695 9664 9630 9593
2928.8591 9557 9524 9498 9479 9466 9457 9448 9435 9414 9386 9351 9310 9267
2935.1267 9225 9190 9167 9159 9168 9195 9236 9287 9343 9398 9447 9488 9519
2941.3943 9539 9546 9542 9526 9502 9471 9437 9401 9364 9324 9281 9235 9188
2947.6616 9140 9095 9053 9013 8975 8940 8908 8880 8859 8847 8845 8856 8881
2953.9292 8918 8964 9016 9069 9121 9169 9211 9245 9273 9293 9304 9307 9306
2960.1968 9302 9301 9307 9323 9350 9385 9424 9467 9508 9547 9582 9609 9627
2966.4644 9636 9637 9632 9626 9619 9614 9609 9604 9597 9586 9571 9553 9529
2972.7317 9501 9469 9432 9392 9351 9309 9267 9224 9181 9137 9094 9058 9032
2978.9993 9022 9029 9056 9101 9159 9226 9298 9370 9441 9507 9566 9616 9657
2985.2668 9687 9707 9719 9725 9725 9722 9715 9706 9692 9674 9649 9618 9579
2991.5344 9533 9484 9433 9383 9338 9299 9267 9246 9237 9240 9259 9294 9344
2997.8018 9409 9483 9562 9641 9713 9776 9828 9871 9905 9935 9960 9983 10001
3004.0693 10015 10024 10029 10032 10034 10037 10042 10048 10055 10061 10065
3009.3726 10067 10066 10064 10061 10057 10053 10049 10046 10045 10046 10048
3014.6760 10051 10054 10055 10055 10054 10052 10051 10048 10043 10038 10032
3019.9792 10028 10026 10026 10025 10021 10013 10000 9986 9972 9962 9956 9956
3025.7646 9960 9966 9970 9971 9967 9960 9951 9945 9944 9947 9954 9961 9966
3032.0322 9966 9962 9954 9943 9930 9916 9903 9892 9884 9878 9874 9870 9866
3038.2996 9859 9849 9838 9824 9807 9789 9770 9750 9730 9711 9694 9677 9661
3044.5671 9646 9631 9619 9611 9609 9615 9628 9648 9671 9694 9716 9734 9748
3050.8347 9760 9770 9780 9788 9794 9795 9793 9787 9780 9772 9765 9759 9752
3057.1023 9745 9737 9730 9724 9720 9717 9716 9715 9713 9708 9700 9688 9673
3063.3696 9656 9640 9626 9613 9602 9591 9578 9565 9551 9538 9528 9522 9520
3069.6372 9521 9524 9527 9529 9532 9535 9541 9550 9561 9571 9578 9582 9583
3075.9048 9584 9586 9590 9595 9600 9604 9607 9610 9614 9619 9623 9625 9625
3082.1724 9623 9619 9614 9610 9606 9605 9605 9607 9609 9611 9612 9611 9611
3088.4397 9610 9609 9607 9606 9603 9601 9598 9594 9590 9587 9586 9587 9590
3094.7073 9592 9592 9589 9581 9570 9560 9552 9547 9545 9544 9543 9542 9539
3100.9749 9536 9533 9530 9528 9526 9525 9525 9525 9526 9527 9527 9526 9522
3107.2424 9516 9507 9496 9484 9473 9464 9458 9453 9449 9446 9443 9442 9441
3113.5098 9440 9438 9433 9425 9415 9404 9394 9386 9379 9374 9369 9365 9360
3119.7773 9355 9350 9345 9341 9336 9331 9326 9322 9318 9314 9311 9307 9303
3126.0449 9299 9294 9289 9283 9275 9264 9252 9242 9234 9230 9230 9232 9235
3132.3125 9239 9242 9244 9244 9242 9237 9231 9224 9219 9214 9208 9201 9192
3138.5798 9181 9170 9161 9154 9149 9144 9139 9132 9125 9117 9110 9104 9096
3144.8474 9087 9077 9065 9055 9047 9043 9044 9050 9059 9068 9076 9081 9083
3151.1150 9080 9074 9067 9061 9055 9052 9051 9051 9051 9050 9048 9044 9038
3157.3826 9030 9022 9013 9005 8999 8996 8996 8997 8999 8998 8995 8988 8977
3163.6499 8964 8951 8940 8932 8926 8922 8917 8910 8902 8892 8879 8866 8852
3169.9175 8838 8826 8817 8811 8808 8805 8799 8789 8775 8759 8743 8728 8715
3176.1851 8705 8698 8691 8685 8677 8667 8655 8643 8631 8621 8610 8599 8586
3182.4526 8571 8555 8539 8525 8514 8505 8497 8488 8478 8466 8453 8438 8424
3188.7200 8410 8396 8382 8367 8352 8336 8320 8302 8285 8267 8249 8230 8210
3194.9875 8189 8168 8147 8128 8110 8093 8074 8053 8029 8002 7976 7951 7929
3201.2551 7911 7895 7879 7861 7838 7812 7782 7750 7718 7688 7661 7639 7619
3207.5227 7600 7580 7560 7538 7517 7495 7471 7446 7419 7390 7361 7334 7309
3213.7900 7285 7263 7240 7216 7192 7167 7144 7122 7101 7083 7066 7051 7038
3220.0576 7029 7024 7023 7028 7039 7054 7074 7095 7119 7143 7169 7198 7230
3226.3252 7265 7304 7345 7386 7427 7467 7506 7543 7578 7610 7640 7667 7693
3232.5928 7719 7744 7768 7792 7814 7835 7854 7870 7884 7895 7903 7910 7915
3238.8601 7919 7924 7929 7933 7937 7940 7942 7943 7943 7943 7942 7943 7945
3245.1277 7948 7955 7963 7974 7986 8000 8015 8032 8051 8072 8095 8119 8144
3251.3953 8167 8190 8212 8234 8257 8280 8300 8315 8327 8336 8344 8352 8362
3257.6628 8372 8382 8388 8390 8388 8386 8384 8386 8390 8395 8401 8407 8412
3263.9302 8417 8423 8428 8431 8433 8433 8432 8432 8432 8431 8428 8421 8412
3270.1978 8402 8391 8382 8374 8370 8368 8367 8367 8365 8362 8358 8354 8352
3276.4653 8351 8349 8344 8337 8329 8320 8312 8304 8295 8285 8275 8265 8257
3282.7329 8251 8244 8237 8229 8220 8211 8204 8197 8189 8180 8170 8161 8153
3289.0002 8148 8146 8144 8142 8136 8128 8116 8103 8089 8077 8065 8054 8042
3295.2678 8029 8014 7998 7981 7965 7953 7943 7936 7928 7918 7904 7887 7868
3301.5354 7851 7835 7821 7806 7790 7772 7751 7730 7708 7686 7664 7644 7626
3307.8030 7611 7598 7585 7572 7556 7538 7519 7499 7480 7461 7443 7426 7410
3314.0703 7394 7379 7365 7350 7335 7320 7307 7295 7284 7275 7266 7255 7240
3320.3379 7221 7198 7174 7151 7130 7111 7094 7076 7058 7039 7018 6996 6973
3326.6055 6948 6923 6897 6872 6848 6824 6802 6780 6758 6734 6710 6686 6662
3332.8730 6640 6619 6598 6578 6557 6536 6516 6496 6479 6463 6448 6434 6423
3339.1404 6414 6410 6410 6416 6427 6443 6463 6487 6515 6548 6587 6635 6691
3345.4080 6757 6830 6909 6992 7077 7164 7251 7338 7422 7505 7588 7675 7767
3351.6755 7865 7968 8071 8172 8270 8365 8459 8553 8646 8737 8825 8908 8985
3357.9431 9058 9126 9190 9251 9309 9366 9421 9475 9527 9577 9626 9671 9712
3364.2104 9748 9778 9803 9822 9838 9853 9867 9881 9892 9902 9909 9916 9925
3370.4780 9938 9953 9970 9985 9998 10005 10006 10002 9993 9981 9967 9954 9943
3376.7456 9934 9926 9916 9904 9887 9868 9848 9829 9815 9804 9797 9790 9781
3383.0132 9769 9752 9730 9706 9682 9660 9641 9623 9605 9585 9560 9534 9507
3389.2805 9483 9462 9445 9428 9410 9388 9362 9333 9303 9274 9249 9226 9203
3395.5481 9179 9152 9121 9088 9054 9018 8981 8943 8903 8865 8828 8793 8762
3401.8157 8730 8697 8660 8619 8574 8527 8479 8428 8377 8326 8277 8230 8184
3408.0833 8137 8087 8033 7975 7917 7858 7802 7748 7695 7644 7592 7542 7492
3414.3506 7444 7396 7349 7301 7251 7199 7147 7097 7051 7011 6981 6959 6946
3420.6182 6939 6935 6933 6931 6931 6934 6943 6958 6980 7008 7040 7076 7116
3426.8857 7159 7207 7261 7321 7386 7454 7525 7595 7664 7731 7797 7864 7932
3433.1533 8003 8075 8149 8223 8297 8369 8439 8505 8568 8629 8688 8746 8804
3439.4207 8859 8910 8955 8995 9034 9073 9113 9153 9189 9220 9247 9271 9295
3445.6882 9321 9347 9373 9395 9413 9427 9441 9455 9469 9484 9498 9509 9517
3451.9558 9521 9524 9527 9533 9541 9550 9559 9564 9566 9566 9565 9565 9567
3458.2234 9572 9578 9587 9597 9607 9616 9624 9631 9635 9637 9638 9637 9638
3464.4907 9640 9642 9645 9648 9649 9651 9652 9655 9658 9661 9660 9656 9648
3470.7583 9639 9630 9624 9621 9620 9619 9616 9612 9605 9598 9593 9591 9591
3477.0259 9593 9595 9597 9598 9599 9597 9595 9591 9586 9582 9578 9573 9567
3483.2935 9560 9551 9543 9537 9533 9531 9530 9529 9529 9528 9529 9531 9533
3489.5608 9534 9533 9530 9526 9519 9512 9503 9494 9486 9480 9476 9477 9479
3495.8284 9482 9483 9480 9473 9463 9453 9446 9444 9446 9452 9458 9461 9462
3502.0959 9459 9454 9446 9438 9429 9420 9413 9408 9404 9402 9401 9400 9399
3508.3635 9397 9394 9390 9384 9379 9374 9370 9367 9365 9365 9367 9371 9374
3514.6309 9375 9374 9369 9363 9357 9353 9349 9345 9340 9333 9326 9320 9318
3520.8984 9319 9323 9326 9328 9325 9319 9311 9304 9300 9300 9301 9304 9305
3527.1660 9305 9304 9302 9302 9303 9304 9303 9299 9292 9284 9277 9271 9267
3533.4336 9265 9265 9266 9268 9270 9269 9263 9255 9245 9238 9235 9237 9243
3539.7009 9250 9255 9256 9255 9253 9251 9252 9256 9260 9264 9267 9266 9263
3545.9685 9256 9248 9239 9230 9222 9216 9213 9212 9214 9217 9222 9225 9226
3552.2361 9224 9219 9214 9207 9202 9197 9194 9191 9190 9190 9190 9190 9189
3558.5037 9186 9184 9182 9181 9181 9180 9178 9173 9168 9163 9160 9161 9166
3564.7712 9174 9181 9187 9188 9185 9179 9170 9161 9151 9141 9132 9124 9119
3571.0386 9117 9119 9122 9127 9130 9131 9130 9126 9122 9118 9115 9112 9109
3577.3062 9106 9101 9096 9090 9086 9084 9086 9092 9101 9109 9114 9114 9110
3583.5737 9103 9096 9094 9097 9105 9117 9127 9128 9119 9104 9089 9078 9074
3589.8413 9075 9080 9087 9095 9104 9112 9119 9123 9122 9116 9107 9096 9088
3596.1086 9084 9084 9086 9087 9086 9083 9081 9079 9078 9077 9074 9069 9065
3602.3762 9061 9059 9059 9060 9061 9063 9066 9069 9071 9070 9065 9056 9044
3608.6438 9031 9021 9013 9007 9004 9003 9005 9009 9015 9022 9027 9028 9027
3614.9114 9025 9023 9021 9021 9021 9021 9021 9023 9027 9033 9040 9046 9049
3621.1787 9049 9046 9043 9040 9037 9036 9037 9038 9041 9045 9048 9053 9059
3627.4463 9069 9081 9092 9090 9076 9058 9043 9033 9026 9022 9018 9013 9006
3633.7139 8999 8993 8989 8989 8991 8994 8995 8992 8984 8971 8958 8946 8939
3639.9814 8937 8939 8942 8944 8943 8940 8937 8936 8938 8944 8952 8961 8970
3646.2488 8980 8989 8998 9006 9010 9008 8999 8986 8971 8958 8948 8937 8928
3652.5164 8920 8915 8914 8918 8927 8937 8947 8950 8946 8936 8925 8915 8905
3658.7839 8897 8891 8887 8887 8891 8897 8904 8910 8912 8911 8908 8903 8899
3665.0515 8898 8898 8900 8902 8904 8906 8910 8915 8921 8924 8922 8918 8913
3671.3188 8912 8914 8918 8922 8927 8933 8941 8951 8957 8954 8947 8939 8933
3677.5864 8930 8929 8929 8928 8923 8915 8907 8899 8895 8894 8895 8897 8900
3683.8540 8904 8910 8917 8927 8937 8946 8953 8955 8951 8944 8940 8944 8956
3690.1216 8970 8981 8983 8977 8968 8960 8956 8954 8953 8952 8948 8944 8940
3696.3889 8937 8937 8938 8939 8942 8946 8951 8956 8962 8967 8973 8978 8982
3702.6565 8985 8984 8982 8978 8973 8969 8967 8966 8966 8967 8969 8971 8974
3708.9241 8976 8977 8976 8975 8974 8973 8968 8957 8942 8926 8912 8903 8900
3715.1917 8903 8911 8923 8935 8947 8956 8961 8963 8961 8960 8962 8968 8978
3721.4590 8987 8992 8991 8988 8987 8990 8998 9010 9022 9029 9027 9019 9007
3727.7266 8996 8989 8985 8986 8989 8993 8996 8998 8998 9001 9009 9021 9035
3733.9941 9047 9051 9041 9017 8990 8969 8955 8946 8939 8933 8929 8926 8923
3740.2617 8920 8917 8913 8910 8908 8910 8914 8921 8924 8919 8908 8898 8891
3746.5291 8885 8880 8876 8875 8881 8895 8915 8933 8943 8943 8934 8917 8900
3752.7966 8889 8883 8880 8877 8874 8868 8860 8853 8847 8845 8846 8850 8855
3759.0642 8860 8862 8860 8855 8851 8847 8846 8847 8850 8854 8857 8858 8856
3765.3318 8852 8848 8846 8847 8849 8853 8857 8859 8859 8856 8852 8847 8842
3771.5991 8839 8836 8834 8834 8833 8834 8834 8833 8832 8831 8830 8829 8830
3777.8667 8832 8838 8845 8851 8853 8852 8848 8844 8840 8838 8839 8842 8848
3784.1343 8856 8862 8863 8859 8850 8840 8832 8827 8826 8827 8827 8827 8825
3790.4019 8823 8822 8820 8818 8815 8811 8809 8810 8815 8825 8836 8848 8854
3796.6692 8854 8848 8842 8839 8840 8845 8856 8874 8895 8910 8907 8888 8863
3802.9368 8840 8824 8814 8810 8813 8821 8833 8843 8845 8840 8834 8832 8834
3809.2043 8837 8839 8837 8832 8824 8816 8809 8804 8802 8802 8806 8816 8831
3815.4719 8847 8857 8854 8844 8832 8821 8814 8809 8809 8813 8823 8836 8845
3821.7393 8849 8848 8846 8842 8838 8833 8828 8824 8823 8823 8823 8822 8819
3828.0068 8814 8809 8805 8802 8801 8801 8803 8806 8811 8817 8825 8833 8842
3834.2744 8850 8856 8858 8858 8856 8853 8847 8840 8833 8829 8830 8833 8835
3840.5420 8835 8832 8827 8822 8818 8816 8814 8812 8810 8808 8806 8803 8802
3846.8093 8801 8803 8807 8813 8818 8823 8827 8830 8834 8841 8851 8863 8872
3853.0769 8871 8859 8846 8837 8833 8833 8834 8835 8835 8832 8827 8822 8818
3859.3445 8815 8815 8815 8816 8814 8811 8808 8806 8807 8813 8823 8831 8833
3865.6121 8829 8822 8814 8808 8805 8807 8815 8829 8844 8852 8850 8844 8838
3871.8794 8833 8831 8829 8826 8821 8813 8806 8802 8799 8799 8801 8804 8807
3878.1470 8811 8815 8817 8817 8815 8814 8812 8812 8810 8806 8800 8794 8789
3884.4146 8789 8794 8804 8813 8817 8816 8811 8806 8800 8795 8792 8792 8794
3890.6821 8799 8803 8806 8806 8805 8802 8799 8797 8795 8795 8796 8797 8798
3896.9495 8800 8804 8810 8819 8827 8830 8829 8825 8822 8822 8824 8827 8827
3903.2170 8824 8819 8815 8814 8814 8814 8811 8805 8797 8787 8779 8773 8771
3909.4846 8771 8773 8776 8779 8782 8785 8786 8787 8786 8785 8784 8785 8788
3915.7522 8793 8798 8801 8799 8796 8793 8792 8793 8796 8797 8796 8792 8787
3922.0195 8783 8783 8787 8795 8804 8811 8813 8810 8806 8802 8800 8800 8800
3928.2871 8801 8802 8802 8801 8801 8799 8797 8794 8791 8789 8787 8785 8784
3934.5547 8783 8784 8787 8792 8797 8802 8804 8803 8799 8793 8787 8782 8778
3940.8223 8778 8779 8781 8783 8784 8784 8785 8789 8794 8802 8808 8811 8809
3947.0896 8802 8792 8784 8779 8779 8781 8783 8784 8783 8782 8780 8780 8781
3953.3572 8783 8785 8788 8791 8794 8795 8793 8790 8785 8780 8777 8776 8777
3959.6248 8778 8779 8779 8779 8778 8777 8775 8772 8771 8770 8770 8772 8776
3965.8923 8780 8785 8787 8788 8787 8785 8783 8780 8778 8775 8772 8769 8766
3972.1597 8764 8762 8761 8761 8762 8764 8767 8769 8771 8771 8772 8773 8774
3978.4272 8777 8780 8783 8786 8788 8788 8787 8785 8782 8781 8780 8780 8779
3984.6948 8778 8776 8773 8772 8773 8775 8778 8781 8785 8788 8790 8791 8789
3990.9624 8785 8781 8775 8771 8769 8769 8770 8772 8774 8777 8780 8781 8781
3997.2297 8779 8775 8771 8769 8769 8770 8772
##END= 
