##TITLE= INCACIDONICOTINICO
##JCAMP-DX= 4.24
##DATA TYPE= INFRARED SPECTRUM
##ORIGIN= JASCO
##OWNER= 
##DATE= 22/05/05
##TIME= 15:51:25
##SPECTROMETER/DATA SYSTEM= 
##RESOLUTION= 
##DELTAX=   0.48211674
##XUNITS= 1/CM
##YUNITS= TRANSMITTANCE
##XFACTOR= 1.00000
##YFACTOR= 0.0001
##FIRSTX=   599.7532
##LASTX=  4000.1226
##NPOINTS=     7054
##FIRSTY=      0.78108
##MAXY=      1.07769
##MINY=      0.14935
##XYDATA= (X++(Y..Y))
599.7532 7811 7752 7698 7652 7613 7583 7564 7556 7556 7557 7548 7523 7475 7409
606.5029 7330 7249 7173 7106 7048 6995 6946 6902 6866 6842 6827 6817 6802 6778
613.2525 6744 6705 6670 6642 6621 6603 6583 6562 6546 6538 6533 6521 6487 6424
620.0021 6333 6226 6115 6010 5912 5820 5730 5639 5547 5452 5354 5246 5127 4997
626.7518 4861 4724 4593 4470 4353 4240 4123 3998 3862 3716 3562 3407 3256 3113
633.5014 2981 2863 2757 2660 2563 2462 2352 2236 2123 2029 1967 1949 1983 2073
640.2510 2224 2441 2726 3079 3493 3952 4434 4910 5349 5728 6032 6260 6423 6542
647.0007 6636 6724 6817 6919 7030 7146 7265 7386 7502 7606 7691 7750 7786 7803
653.7503 7809 7810 7809 7804 7795 7779 7757 7729 7696 7662 7626 7590 7549 7499
660.4999 7438 7366 7290 7218 7159 7114 7078 7041 6994 6931 6855 6770 6681 6595
667.2496 6524 6488 6493 6477 6402 6292 6172 6048 5926 5805 5685 5566 5444 5316
673.9992 5183 5044 4895 4733 4550 4341 4104 3843 3568 3291 3027 2796 2622 2535
680.7488 2562 2719 2997 3356 3731 4049 4255 4323 4255 4080 3839 3574 3315 3081
687.4985 2881 2713 2576 2467 2388 2343 2338 2377 2461 2587 2750 2946 3172 3430
694.2481 3724 4058 4431 4841 5280 5737 6193 6634 7045 7418 7753 8050 8307 8516
700.9977 8668 8757 8781 8750 8679 8588 8495 8414 8346 8285 8217 8130 8025 7910
707.7474 7802 7713 7650 7605 7565 7514 7446 7358 7259 7159 7068 6995 6942 6910
714.4970 6895 6891 6890 6885 6870 6845 6811 6768 6718 6659 6591 6515 6434 6353
721.2466 6278 6212 6153 6098 6039 5969 5882 5781 5672 5561 5452 5342 5225 5096
727.9963 4954 4803 4651 4505 4369 4240 4114 3986 3857 3732 3618 3521 3439 3362
734.7459 3276 3167 3028 2867 2698 2535 2387 2253 2130 2011 1895 1786 1686 1602
741.4955 1537 1499 1494 1524 1591 1691 1817 1964 2130 2314 2516 2737 2971 3215
748.2452 3463 3713 3961 4206 4450 4699 4962 5247 5556 5881 6208 6519 6801 7050
754.9948 7263 7443 7591 7709 7800 7867 7913 7942 7958 7965 7969 7973 7981 7990
761.7444 7998 8003 8003 7998 7987 7968 7941 7908 7872 7839 7814 7795 7779 7759
768.4941 7732 7700 7665 7628 7591 7552 7513 7473 7433 7393 7352 7309 7265 7221
775.2437 7178 7136 7095 7052 7008 6965 6926 6893 6867 6845 6825 6803 6776 6742
781.9933 6701 6655 6609 6566 6531 6502 6474 6442 6402 6357 6312 6273 6243 6220
788.7430 6200 6178 6152 6125 6103 6091 6091 6098 6109 6115 6112 6098 6074 6042
795.4926 6005 5965 5925 5885 5843 5798 5748 5691 5627 5559 5490 5422 5357 5292
802.2422 5225 5152 5073 4989 4903 4815 4725 4630 4527 4418 4305 4194 4092 4004
808.9919 3935 3890 3876 3903 3979 4112 4302 4544 4827 5135 5451 5753 6025 6254
815.7415 6437 6574 6673 6742 6786 6809 6814 6804 6784 6761 6743 6737 6745 6767
822.4911 6794 6819 6833 6834 6823 6801 6768 6716 6634 6514 6351 6151 5927 5698
829.2408 5483 5302 5172 5106 5114 5196 5344 5539 5755 5968 6156 6310 6431 6525
835.9904 6597 6651 6688 6708 6714 6714 6716 6728 6755 6796 6847 6901 6950 6987
842.7401 7009 7016 7010 6998 6983 6970 6958 6945 6930 6909 6882 6851 6820 6790
849.4897 6764 6740 6716 6689 6660 6629 6598 6570 6545 6523 6503 6484 6463 6439
856.2393 6411 6381 6350 6320 6293 6270 6250 6235 6223 6214 6206 6197 6186 6171
862.9890 6153 6133 6113 6094 6078 6064 6052 6041 6033 6025 6019 6014 6009 6001
869.7386 5992 5979 5964 5949 5933 5918 5904 5892 5883 5875 5869 5862 5854 5842
876.4882 5827 5810 5795 5782 5774 5768 5764 5760 5756 5752 5747 5743 5737 5728
883.2379 5716 5703 5689 5676 5665 5653 5641 5629 5617 5606 5596 5585 5574 5562
889.9875 5552 5544 5541 5541 5543 5544 5542 5536 5527 5515 5502 5491 5481 5472
896.7371 5466 5460 5455 5450 5443 5435 5426 5416 5407 5402 5401 5403 5406 5407
903.4868 5402 5392 5378 5362 5346 5334 5325 5319 5316 5315 5313 5308 5302 5294
910.2364 5286 5279 5272 5265 5257 5250 5244 5239 5236 5231 5226 5218 5210 5202
916.9860 5194 5187 5180 5173 5166 5160 5156 5153 5151 5148 5143 5136 5130 5126
923.7357 5126 5128 5131 5132 5128 5121 5112 5101 5092 5085 5080 5078 5078 5080
930.4853 5085 5092 5102 5115 5130 5146 5161 5175 5187 5197 5202 5202 5194 5179
937.2349 5157 5133 5110 5089 5071 5053 5034 5013 4990 4967 4946 4924 4904 4883
943.9846 4862 4842 4823 4804 4785 4762 4734 4701 4661 4616 4568 4518 4467 4416
950.7342 4364 4311 4259 4209 4166 4136 4124 4135 4175 4243 4334 4444 4562 4680
957.4838 4791 4889 4972 5037 5085 5116 5133 5139 5137 5129 5118 5103 5084 5063
964.2335 5040 5018 4998 4981 4967 4957 4951 4948 4945 4940 4930 4913 4892 4868
970.9831 4847 4828 4812 4795 4775 4750 4723 4695 4670 4649 4635 4625 4618 4611
977.7327 4601 4589 4573 4558 4546 4541 4541 4547 4553 4558 4558 4553 4545 4537
984.4824 4528 4520 4512 4503 4490 4476 4461 4447 4433 4419 4404 4385 4365 4347
991.2320 4331 4320 4312 4306 4300 4297 4295 4297 4300 4301 4298 4288 4272 4251
997.9816 4228 4204 4179 4156 4136 4119 4106 4096 4086 4076 4064 4048 4030 4010
1004.7313 3990 3972 3958 3947 3939 3932 3924 3914 3902 3889 3874 3858 3841
1010.9988 3822 3802 3782 3763 3746 3732 3721 3710 3697 3682 3664 3645 3627
1017.2663 3612 3601 3593 3588 3585 3582 3577 3571 3561 3550 3539 3530 3526
1023.5338 3528 3535 3546 3559 3572 3584 3597 3611 3622 3630 3627 3609 3574
1029.8014 3525 3470 3419 3381 3362 3363 3381 3410 3447 3485 3522 3558 3590
1036.0688 3618 3640 3657 3670 3681 3692 3709 3736 3776 3832 3905 3997 4105
1042.3364 4231 4373 4532 4708 4899 5097 5292 5474 5634 5763 5860 5925 5962
1048.6039 5975 5967 5945 5913 5878 5841 5805 5771 5738 5707 5678 5651 5627
1054.8715 5605 5585 5565 5546 5526 5509 5494 5481 5471 5460 5449 5436 5422
1061.1389 5409 5398 5391 5386 5382 5378 5373 5367 5361 5355 5348 5340 5331
1067.4065 5322 5313 5305 5297 5287 5276 5261 5243 5222 5201 5179 5160 5142
1073.6740 5127 5113 5101 5088 5073 5055 5035 5011 4984 4954 4922 4888 4852
1079.9415 4816 4780 4746 4715 4686 4658 4632 4608 4587 4571 4562 4561 4567
1086.2090 4582 4603 4633 4671 4721 4783 4856 4939 5029 5120 5209 5294 5370
1092.4766 5438 5497 5547 5588 5623 5652 5677 5700 5720 5737 5748 5752 5749
1098.7440 5738 5723 5706 5689 5673 5655 5634 5609 5579 5547 5514 5481 5448
1105.0116 5414 5375 5332 5282 5228 5172 5115 5059 5002 4943 4883 4822 4764
1111.2791 4711 4666 4630 4607 4600 4616 4661 4740 4855 5003 5178 5368 5561
1117.5466 5746 5911 6052 6165 6251 6313 6352 6371 6372 6358 6333 6299 6262
1123.8141 6224 6190 6163 6147 6143 6153 6175 6202 6226 6238 6230 6200 6149
1130.0817 6082 6007 5929 5854 5782 5715 5654 5598 5551 5514 5488 5473 5470
1136.3491 5480 5502 5539 5590 5654 5728 5809 5891 5972 6048 6120 6186 6246
1142.6167 6301 6349 6391 6424 6451 6473 6493 6515 6539 6565 6589 6611 6629
1148.8842 6643 6656 6669 6683 6695 6703 6708 6707 6702 6693 6680 6663 6642
1155.1517 6618 6588 6553 6512 6467 6418 6366 6314 6264 6215 6168 6122 6075
1161.4192 6028 5979 5931 5883 5839 5797 5758 5721 5684 5648 5612 5576 5541
1167.6868 5507 5474 5443 5414 5386 5358 5332 5304 5275 5246 5217 5188 5162
1173.9542 5137 5114 5090 5065 5038 5010 4982 4954 4928 4903 4879 4857 4837
1180.2218 4821 4813 4812 4817 4829 4847 4872 4908 4957 5021 5101 5199 5312
1186.4893 5434 5560 5684 5801 5910 6011 6107 6200 6291 6380 6469 6556 6643
1192.7568 6728 6810 6885 6951 7005 7047 7077 7093 7099 7095 7083 7066 7044
1199.0243 7020 6992 6962 6927 6887 6841 6788 6726 6655 6577 6493 6405 6316
1205.2919 6229 6149 6076 6012 5957 5909 5866 5828 5793 5762 5736 5715 5698
1211.5593 5684 5671 5657 5644 5631 5619 5609 5600 5592 5584 5575 5565 5554
1217.8269 5543 5532 5522 5513 5505 5498 5491 5484 5477 5471 5466 5462 5458
1224.0944 5453 5447 5439 5432 5426 5421 5417 5412 5406 5399 5392 5386 5382
1230.3619 5379 5375 5368 5359 5346 5332 5316 5299 5283 5268 5254 5241 5229
1236.6294 5218 5208 5198 5188 5179 5171 5164 5159 5155 5152 5149 5146 5143
1242.8970 5142 5143 5146 5151 5156 5162 5169 5177 5186 5197 5207 5216 5223
1249.1644 5227 5228 5228 5226 5223 5219 5214 5209 5203 5198 5192 5187 5183
1255.4320 5180 5177 5174 5170 5165 5157 5148 5139 5130 5123 5117 5112 5107
1261.6995 5101 5093 5080 5062 5038 5010 4978 4946 4917 4891 4870 4852 4834
1267.9670 4815 4794 4771 4749 4731 4717 4708 4701 4695 4687 4677 4664 4651
1274.2345 4637 4623 4609 4595 4579 4563 4546 4527 4507 4485 4463 4440 4417
1280.5021 4394 4370 4345 4321 4297 4274 4252 4232 4213 4194 4175 4155 4136
1286.7695 4118 4100 4084 4069 4055 4041 4026 4010 3994 3979 3965 3952 3943
1293.0371 3936 3931 3930 3932 3938 3949 3964 3983 4008 4037 4071 4110 4155
1299.3046 4206 4264 4330 4406 4490 4584 4686 4796 4913 5038 5171 5315 5467
1305.5721 5627 5791 5956 6118 6271 6411 6528 6614 6662 6664 6617 6518 6366
1311.8396 6163 5919 5649 5379 5131 4923 4763 4651 4579 4536 4511 4497 4489
1318.1072 4488 4497 4523 4567 4632 4717 4822 4945 5085 5240 5407 5583 5764
1324.3746 5947 6130 6309 6483 6650 6810 6961 7106 7245 7381 7516 7652 7790
1330.6422 7930 8071 8214 8360 8509 8662 8816 8970 9122 9272 9423 9574 9722
1336.9097 9863 9994 10116 10229 10337 10434 10511 10559 10577 10570 10547
1342.2130 10514 10478 10443 10411 10384 10365 10353 10346 10342 10341 10343
1347.5162 10347 10352 10360 10369 10379 10390 10404 10420 10439 10460 10483
1352.8196 10504 10522 10537 10549 10559 10567 10575 10583 10592 10602 10611
1358.1228 10618 10622 10625 10625 10623 10618 10613 10608 10604 10601 10598
1363.4261 10593 10585 10574 10560 10545 10531 10518 10508 10499 10491 10485
1368.7294 10479 10475 10472 10470 10470 10470 10471 10473 10478 10489 10507
1374.0327 10527 10546 10558 10562 10563 10565 10571 10582 10596 10612 10625
1379.3359 10635 10640 10643 10644 10644 10643 10643 10645 10649 10653 10655
1384.6393 10653 10648 10644 10645 10656 10678 10701 10714 10711 10696 10673
1389.9425 10646 10618 10587 10553 10515 10473 10428 10381 10332 10281 10226
1395.2458 10161 10088 10011 9933 9856 9780 9703 9622 9538 9453 9371 9290 9210
1401.5133 9128 9046 8964 8884 8805 8724 8637 8539 8433 8323 8211 8096 7974
1407.7809 7846 7711 7571 7427 7280 7128 6974 6821 6676 6546 6436 6348 6283
1414.0483 6242 6225 6235 6274 6339 6423 6517 6620 6751 6945 7237 7593 7916
1420.3159 8152 8317 8449 8575 8712 8866 9029 9181 9296 9363 9393 9399 9392
1426.5834 9380 9368 9359 9353 9352 9358 9369 9383 9395 9402 9405 9406 9409
1432.8510 9414 9419 9422 9421 9419 9420 9430 9453 9483 9504 9511 9509 9507
1439.1184 9507 9509 9511 9509 9501 9485 9463 9437 9406 9370 9328 9281 9232
1445.3860 9184 9140 9102 9069 9041 9018 9000 8987 8978 8972 8970 8973 8981
1451.6534 8993 9006 9017 9024 9027 9028 9029 9033 9044 9064 9096 9133 9164
1457.9210 9183 9192 9197 9202 9208 9216 9225 9236 9247 9255 9260 9266 9273
1464.1885 9285 9298 9305 9302 9289 9269 9245 9216 9184 9146 9104 9059 9010
1470.4561 8959 8904 8842 8766 8675 8580 8499 8435 8381 8334 8290 8250 8218
1476.7235 8197 8187 8183 8184 8188 8197 8213 8237 8269 8307 8346 8383 8418
1482.9911 8449 8478 8504 8526 8545 8560 8573 8583 8587 8580 8562 8537 8512
1489.2585 8495 8492 8499 8503 8497 8484 8467 8450 8436 8424 8417 8414 8417
1495.5261 8428 8443 8453 8457 8457 8462 8475 8496 8519 8537 8551 8562 8574
1501.7936 8586 8595 8597 8590 8576 8557 8538 8523 8525 8562 8630 8679 8691
1508.0612 8684 8671 8659 8647 8637 8627 8619 8612 8604 8594 8580 8562 8540
1514.3286 8517 8495 8477 8465 8460 8456 8445 8424 8399 8373 8348 8326 8309
1520.5962 8303 8308 8316 8312 8299 8284 8272 8264 8261 8261 8261 8259 8254
1526.8636 8249 8247 8248 8252 8257 8260 8260 8258 8256 8253 8251 8253 8260
1533.1312 8273 8290 8304 8313 8317 8317 8315 8311 8306 8300 8297 8306 8336
1539.3987 8383 8416 8419 8409 8403 8404 8408 8412 8413 8415 8423 8437 8453
1545.6663 8464 8463 8455 8442 8430 8421 8418 8424 8439 8455 8464 8461 8450
1551.9337 8435 8421 8413 8416 8432 8452 8461 8453 8434 8408 8380 8351 8331
1558.2013 8351 8467 8609 8651 8635 8605 8575 8548 8524 8504 8490 8484 8488
1564.4688 8498 8510 8514 8508 8491 8469 8445 8426 8421 8441 8485 8530 8550
1570.7363 8545 8531 8516 8503 8490 8474 8452 8424 8395 8369 8350 8327 8279
1577.0038 8202 8110 8013 7916 7821 7731 7648 7574 7510 7458 7422 7408 7422
1583.2714 7464 7530 7612 7702 7790 7869 7935 7985 8019 8039 8046 8044 8033
1589.5389 8016 7993 7963 7924 7873 7809 7731 7641 7539 7431 7327 7236 7172
1595.8064 7146 7167 7242 7370 7547 7761 7996 8236 8466 8674 8852 8999 9116
1602.0740 9211 9290 9357 9412 9456 9490 9517 9541 9562 9581 9595 9602 9602
1608.3414 9597 9588 9576 9559 9537 9509 9477 9442 9405 9366 9324 9280 9236
1614.6090 9193 9153 9119 9091 9067 9036 8995 8948 8897 8845 8792 8738 8687
1620.8765 8639 8594 8553 8513 8474 8433 8390 8346 8302 8260 8219 8181 8145
1627.1440 8112 8080 8049 8017 7987 7958 7933 7911 7891 7872 7851 7828 7803
1633.4115 7776 7749 7727 7714 7715 7720 7715 7697 7673 7647 7622 7598 7577
1639.6791 7556 7537 7519 7503 7487 7472 7455 7438 7420 7400 7380 7360 7341
1645.9465 7325 7316 7312 7306 7293 7274 7252 7229 7205 7181 7156 7130 7104
1652.2141 7087 7103 7154 7166 7134 7092 7052 7017 6985 6957 6930 6905 6881
1658.4816 6857 6832 6807 6782 6759 6738 6723 6711 6702 6691 6673 6651 6627
1664.7491 6603 6579 6555 6532 6510 6489 6471 6456 6442 6427 6411 6393 6374
1671.0166 6352 6326 6297 6265 6234 6204 6177 6151 6126 6096 6059 6017 5972
1677.2842 5926 5880 5834 5789 5746 5703 5659 5615 5570 5526 5483 5440 5399
1683.5516 5361 5326 5291 5254 5218 5184 5153 5123 5096 5070 5045 5021 4999
1689.8192 4980 4964 4950 4939 4929 4919 4909 4897 4884 4871 4861 4862 4879
1696.0867 4901 4906 4893 4869 4841 4811 4784 4766 4768 4777 4769 4747 4721
1702.3542 4697 4677 4663 4654 4652 4658 4672 4694 4720 4746 4765 4777 4787
1708.6217 4797 4812 4834 4863 4892 4918 4938 4954 4966 4980 5000 5030 5069
1714.8893 5108 5138 5155 5163 5178 5217 5287 5364 5414 5438 5450 5460 5473
1721.1567 5489 5509 5533 5560 5589 5618 5644 5667 5688 5709 5733 5759 5785
1727.4243 5810 5832 5853 5880 5915 5956 5995 6024 6040 6048 6053 6067 6106
1733.6918 6184 6272 6323 6340 6347 6355 6367 6382 6398 6414 6435 6466 6510
1739.9594 6557 6594 6619 6635 6651 6673 6704 6741 6776 6803 6823 6838 6852
1746.2268 6866 6882 6904 6932 6963 6994 7018 7035 7050 7067 7088 7109 7128
1752.4944 7142 7152 7162 7171 7180 7190 7202 7216 7236 7258 7280 7297 7309
1758.7618 7317 7323 7328 7335 7346 7360 7374 7387 7394 7400 7406 7413 7423
1765.0294 7431 7437 7439 7438 7437 7439 7445 7452 7457 7458 7454 7447 7440
1771.2969 7435 7436 7445 7456 7464 7467 7468 7468 7467 7466 7465 7463 7460
1777.5645 7457 7453 7450 7448 7447 7447 7447 7446 7443 7439 7434 7431 7428
1783.8319 7428 7429 7431 7433 7434 7433 7432 7429 7427 7424 7420 7417 7412
1790.0995 7407 7403 7402 7404 7410 7417 7419 7417 7411 7405 7399 7397 7396
1796.3669 7397 7398 7397 7396 7395 7395 7395 7394 7391 7385 7378 7370 7363
1802.6345 7357 7352 7349 7346 7344 7340 7337 7332 7326 7319 7313 7308 7303
1808.9020 7300 7296 7293 7289 7285 7282 7279 7277 7275 7273 7271 7269 7266
1815.1696 7263 7261 7260 7258 7257 7254 7250 7244 7239 7235 7232 7232 7234
1821.4370 7238 7242 7244 7242 7237 7232 7229 7232 7238 7243 7245 7241 7233
1827.7046 7223 7213 7205 7201 7201 7203 7204 7202 7197 7192 7187 7183 7180
1833.9720 7179 7179 7179 7178 7177 7177 7177 7177 7175 7171 7166 7160 7156
1840.2396 7154 7154 7156 7158 7162 7166 7171 7175 7175 7171 7164 7157 7152
1846.5071 7150 7150 7152 7154 7155 7153 7149 7146 7142 7140 7139 7137 7133
1852.7747 7128 7124 7121 7122 7126 7132 7138 7142 7143 7143 7141 7138 7135
1859.0421 7132 7129 7126 7125 7125 7128 7133 7138 7142 7144 7144 7141 7137
1865.3097 7132 7127 7122 7119 7118 7122 7131 7146 7164 7181 7194 7201 7204
1871.5771 7204 7200 7193 7186 7180 7177 7178 7182 7186 7189 7189 7185 7180
1877.8447 7175 7173 7173 7175 7178 7180 7182 7181 7179 7175 7171 7170 7175
1884.1122 7187 7204 7221 7233 7237 7232 7222 7212 7205 7203 7204 7207 7209
1890.3798 7211 7214 7218 7223 7228 7233 7236 7239 7243 7249 7255 7258 7257
1896.6472 7251 7242 7233 7228 7229 7237 7250 7266 7280 7292 7299 7304 7307
1902.9148 7310 7313 7313 7312 7309 7306 7304 7304 7305 7305 7302 7296 7288
1909.1823 7282 7282 7287 7297 7307 7314 7316 7315 7314 7318 7328 7342 7354
1915.4498 7359 7356 7347 7337 7334 7341 7352 7360 7359 7347 7327 7305 7287
1921.7173 7277 7281 7299 7324 7349 7367 7376 7378 7375 7371 7370 7375 7386
1927.9849 7403 7424 7445 7462 7472 7475 7473 7469 7466 7467 7470 7473 7472
1934.2523 7464 7450 7433 7417 7408 7410 7424 7445 7464 7474 7469 7454 7434
1940.5199 7420 7416 7427 7449 7474 7493 7504 7508 7513 7522 7534 7546 7553
1946.7874 7550 7537 7519 7501 7486 7477 7475 7479 7490 7504 7518 7530 7538
1953.0549 7541 7544 7549 7556 7562 7564 7559 7551 7546 7550 7567 7597 7634
1959.3224 7673 7708 7736 7753 7758 7752 7740 7733 7742 7770 7813 7852 7870
1965.5900 7853 7803 7736 7675 7642 7645 7675 7717 7757 7786 7803 7816 7828
1971.8574 7842 7853 7854 7841 7823 7814 7828 7870 7927 7984 8024 8044 8046
1978.1250 8037 8020 7998 7974 7952 7934 7922 7916 7919 7933 7962 8001 8041
1984.3925 8066 8068 8049 8024 8012 8027 8069 8130 8190 8233 8248 8241 8221
1990.6600 8201 8189 8189 8194 8195 8185 8168 8151 8139 8137 8142 8150 8162
1996.9275 8179 8205 8240 8280 8317 8342 8351 8343 8319 8281 8232 8179 8131
2003.1951 8099 8089 8101 8132 8177 8234 8301 8371 8433 8466 8460 8414 8346
2009.4625 8277 8229 8211 8222 8253 8294 8334 8364 8379 8378 8366 8354 8355
2015.7301 8376 8415 8459 8490 8494 8470 8424 8370 8321 8284 8265 8265 8279
2021.9976 8302 8324 8343 8360 8385 8426 8485 8552 8608 8633 8618 8569 8504
2028.2651 8444 8404 8391 8399 8419 8442 8462 8474 8481 8485 8491 8504 8526
2034.5326 8556 8587 8612 8624 8622 8607 8586 8565 8550 8543 8544 8551 8562
2040.8002 8573 8581 8584 8579 8568 8552 8534 8513 8491 8467 8443 8425 8418
2047.0676 8423 8440 8461 8478 8487 8488 8486 8487 8495 8510 8527 8541 8550
2053.3352 8550 8543 8530 8513 8497 8486 8484 8494 8514 8538 8559 8569 8567
2059.6028 8557 8547 8542 8542 8543 8541 8534 8524 8517 8513 8512 8510 8504
2065.8701 8496 8492 8498 8519 8553 8596 8640 8677 8700 8708 8701 8682 8660
2072.1377 8641 8630 8627 8627 8626 8619 8610 8603 8604 8612 8622 8627 8620
2078.4053 8603 8582 8566 8565 8579 8603 8629 8649 8659 8659 8652 8642 8630
2084.6729 8618 8604 8587 8569 8553 8544 8545 8558 8581 8608 8633 8650 8658
2090.9402 8655 8646 8632 8615 8598 8583 8574 8571 8575 8580 8583 8581 8574
2097.2078 8567 8565 8570 8583 8604 8629 8654 8674 8684 8685 8676 8663 8652
2103.4753 8648 8650 8656 8661 8660 8653 8641 8629 8620 8616 8617 8622 8629
2109.7429 8637 8646 8656 8667 8678 8685 8685 8678 8666 8652 8642 8640 8646
2116.0103 8657 8669 8678 8681 8676 8665 8650 8637 8629 8629 8639 8657 8680
2122.2778 8701 8716 8724 8724 8719 8711 8700 8687 8673 8660 8650 8645 8647
2128.5454 8652 8660 8670 8680 8691 8698 8698 8686 8664 8639 8622 8621 8639
2134.8130 8668 8697 8714 8712 8695 8671 8653 8647 8655 8669 8684 8694 8697
2141.0803 8695 8691 8685 8675 8661 8643 8629 8627 8646 8687 8742 8796 8832
2147.3479 8840 8819 8782 8740 8706 8681 8665 8659 8663 8683 8718 8758 8787
2153.6155 8792 8770 8736 8713 8719 8753 8797 8826 8823 8790 8750 8734 8756
2159.8831 8811 8873 8918 8938 8934 8917 8894 8868 8837 8801 8758 8713 8668
2166.1504 8629 8600 8585 8585 8596 8613 8626 8632 8632 8628 8622 8612 8597
2172.4180 8578 8561 8555 8563 8581 8599 8607 8604 8598 8599 8611 8629 8644
2178.6855 8646 8635 8615 8596 8582 8574 8569 8564 8559 8557 8558 8565 8576
2184.9531 8588 8600 8608 8610 8607 8598 8586 8577 8573 8576 8581 8582 8572
2191.2205 8550 8522 8497 8486 8489 8503 8515 8517 8505 8486 8468 8457 8452
2197.4880 8447 8435 8415 8392 8372 8361 8361 8365 8367 8363 8356 8355 8367
2203.7556 8391 8421 8444 8452 8444 8427 8409 8397 8388 8376 8354 8324 8289
2210.0232 8259 8242 8239 8250 8268 8289 8306 8317 8323 8322 8317 8310 8305
2216.2905 8303 8306 8315 8328 8342 8351 8353 8346 8334 8319 8303 8288 8270
2222.5581 8249 8227 8210 8204 8210 8225 8242 8256 8261 8257 8245 8227 8205
2228.8257 8183 8168 8168 8184 8212 8242 8260 8260 8242 8214 8185 8161 8144
2235.0933 8130 8119 8110 8106 8107 8113 8121 8128 8133 8135 8134 8133 8132
2241.3606 8131 8130 8129 8126 8120 8108 8089 8066 8043 8026 8018 8019 8027
2247.6282 8037 8048 8056 8062 8063 8057 8045 8027 8009 7995 7989 7989 7995
2253.8958 8001 8006 8011 8015 8019 8021 8018 8007 7989 7965 7941 7922 7912
2260.1633 7913 7922 7935 7946 7951 7949 7943 7935 7930 7928 7927 7926 7921
2266.4307 7913 7902 7894 7893 7901 7918 7939 7961 7977 7984 7982 7974 7962
2272.6982 7951 7942 7937 7931 7924 7913 7899 7886 7877 7875 7879 7886 7891
2278.9658 7889 7881 7871 7862 7858 7859 7864 7869 7874 7877 7878 7876 7872
2285.2334 7868 7864 7862 7861 7861 7859 7856 7852 7845 7838 7831 7823 7818
2291.5007 7814 7814 7815 7817 7819 7820 7819 7817 7816 7816 7817 7821 7823
2297.7683 7825 7824 7821 7817 7815 7813 7810 7806 7800 7794 7790 7790 7793
2304.0359 7795 7794 7789 7782 7776 7777 7785 7798 7813 7824 7826 7819 7807
2310.3035 7793 7783 7779 7782 7789 7796 7799 7799 7795 7789 7783 7780 7781
2316.5708 7785 7792 7798 7801 7800 7794 7785 7775 7765 7755 7747 7740 7737
2322.8384 7738 7742 7749 7755 7759 7762 7764 7767 7769 7768 7763 7753 7741
2329.1060 7731 7727 7729 7736 7745 7751 7753 7751 7743 7731 7716 7698 7679
2335.3735 7661 7645 7634 7629 7632 7640 7653 7670 7687 7701 7711 7713 7709
2341.6409 7701 7692 7687 7687 7692 7700 7707 7709 7705 7697 7687 7676 7664
2347.9084 7652 7640 7627 7615 7605 7600 7602 7611 7625 7637 7646 7650 7651
2354.1760 7655 7664 7680 7700 7719 7734 7743 7746 7746 7743 7736 7725 7709
2360.4436 7692 7675 7662 7653 7648 7643 7638 7636 7639 7649 7664 7682 7695
2366.7109 7701 7699 7691 7680 7669 7657 7647 7638 7634 7637 7645 7657 7668
2372.9785 7676 7678 7678 7677 7676 7676 7676 7676 7674 7673 7674 7675 7677
2379.2461 7677 7676 7674 7672 7672 7675 7678 7681 7683 7683 7679 7674 7668
2385.5137 7664 7662 7664 7670 7676 7682 7685 7685 7683 7680 7680 7681 7684
2391.7810 7686 7687 7686 7685 7686 7688 7692 7697 7699 7700 7699 7697 7694
2398.0486 7693 7693 7695 7699 7706 7713 7718 7720 7718 7712 7706 7703 7704
2404.3162 7709 7716 7723 7727 7728 7728 7727 7728 7730 7732 7734 7735 7736
2410.5837 7740 7744 7749 7752 7752 7749 7745 7743 7746 7752 7761 7769 7776
2416.8511 7779 7781 7783 7784 7785 7786 7788 7789 7791 7794 7796 7797 7796
2423.1187 7795 7795 7796 7798 7800 7803 7805 7807 7808 7811 7813 7816 7820
2429.3862 7825 7829 7834 7837 7838 7836 7833 7830 7829 7831 7835 7842 7848
2435.6538 7855 7860 7864 7868 7871 7873 7875 7878 7880 7884 7888 7891 7894
2441.9211 7896 7897 7898 7899 7901 7905 7910 7916 7924 7932 7938 7943 7946
2448.1887 7949 7951 7953 7954 7953 7953 7954 7959 7967 7977 7986 7992 7995
2454.4563 7995 7996 7998 8000 8001 8001 8001 8000 8002 8006 8012 8019 8026
2460.7239 8032 8036 8039 8041 8042 8042 8044 8046 8051 8057 8062 8065 8067
2466.9912 8068 8070 8074 8079 8085 8090 8094 8098 8101 8104 8106 8105 8103
2473.2588 8101 8101 8104 8111 8121 8133 8146 8160 8172 8182 8188 8191 8189
2479.5264 8186 8183 8179 8177 8177 8179 8185 8195 8208 8224 8238 8250 8259
2485.7939 8265 8270 8276 8281 8283 8282 8278 8271 8265 8263 8266 8273 8283
2492.0613 8293 8301 8306 8308 8309 8311 8314 8319 8324 8329 8336 8344 8355
2498.3289 8367 8379 8388 8392 8392 8390 8387 8386 8387 8391 8397 8404 8410
2504.5964 8415 8419 8424 8431 8438 8447 8455 8461 8466 8470 8475 8481 8489
2510.8640 8497 8504 8509 8510 8509 8507 8505 8506 8511 8519 8530 8541 8553
2517.1313 8564 8573 8579 8581 8579 8575 8570 8569 8572 8581 8592 8604 8614
2523.3989 8622 8629 8636 8643 8650 8654 8655 8654 8652 8649 8649 8650 8652
2529.6665 8655 8659 8663 8669 8676 8685 8695 8704 8714 8721 8727 8732 8735
2535.9341 8737 8741 8745 8750 8754 8758 8760 8762 8764 8767 8772 8778 8783
2542.2014 8787 8788 8787 8785 8784 8786 8788 8790 8790 8787 8782 8777 8776
2548.4690 8778 8784 8790 8795 8797 8795 8791 8788 8787 8791 8799 8810 8821
2554.7366 8831 8838 8842 8843 8843 8844 8846 8851 8857 8865 8873 8881 8889
2561.0042 8896 8902 8906 8908 8909 8908 8909 8911 8916 8921 8926 8928 8928
2567.2715 8925 8923 8924 8927 8933 8941 8949 8958 8967 8976 8982 8986 8988
2573.5391 8988 8989 8990 8993 8998 9003 9007 9009 9011 9012 9014 9017 9021
2579.8066 9025 9030 9035 9042 9049 9057 9064 9069 9072 9073 9075 9079 9085
2586.0742 9093 9100 9105 9109 9111 9113 9114 9116 9117 9117 9117 9118 9119
2592.3418 9121 9124 9126 9129 9131 9133 9135 9135 9134 9131 9127 9123 9120
2598.6091 9120 9124 9130 9137 9145 9152 9157 9161 9164 9165 9165 9164 9162
2604.8767 9160 9157 9155 9152 9150 9148 9148 9148 9150 9152 9153 9153 9154
2611.1443 9154 9156 9159 9163 9168 9174 9179 9183 9186 9187 9186 9184 9183
2617.4119 9183 9186 9191 9195 9199 9199 9197 9193 9188 9186 9185 9187 9191
2623.6792 9196 9200 9202 9203 9202 9201 9200 9199 9198 9196 9194 9192 9191
2629.9468 9192 9196 9201 9205 9209 9211 9212 9213 9214 9215 9216 9216 9217
2636.2144 9218 9219 9222 9225 9229 9232 9233 9235 9235 9235 9235 9234 9233
2642.4819 9232 9231 9231 9233 9237 9242 9247 9252 9256 9260 9264 9269 9274
2648.7493 9279 9282 9284 9286 9286 9288 9291 9296 9300 9304 9307 9309 9310
2655.0168 9313 9315 9319 9323 9327 9330 9334 9338 9341 9345 9349 9352 9355
2661.2844 9358 9362 9367 9374 9381 9387 9392 9395 9396 9395 9394 9394 9394
2667.5520 9396 9399 9403 9408 9413 9419 9424 9428 9432 9435 9437 9439 9441
2673.8193 9444 9449 9455 9462 9468 9472 9474 9474 9475 9477 9479 9483 9487
2680.0869 9490 9493 9495 9498 9501 9503 9505 9507 9508 9509 9512 9515 9519
2686.3545 9523 9528 9531 9534 9536 9537 9538 9539 9542 9545 9549 9552 9553
2692.6221 9554 9555 9556 9558 9562 9566 9571 9576 9580 9583 9585 9586 9585
2698.8894 9585 9585 9587 9591 9595 9597 9599 9600 9600 9602 9604 9607 9610
2705.1570 9613 9616 9619 9622 9624 9627 9629 9632 9635 9638 9641 9643 9645
2711.4246 9645 9645 9645 9645 9647 9650 9655 9659 9663 9667 9669 9668 9667
2717.6921 9665 9663 9663 9664 9667 9670 9674 9676 9678 9680 9683 9687 9692
2723.9595 9697 9702 9706 9709 9711 9712 9713 9713 9714 9714 9715 9717 9720
2730.2271 9724 9727 9730 9731 9731 9730 9730 9730 9731 9733 9734 9736 9739
2736.4946 9742 9746 9750 9752 9752 9751 9750 9749 9748 9747 9745 9743 9740
2742.7622 9738 9737 9738 9740 9743 9746 9749 9751 9753 9755 9756 9756 9755
2749.0295 9753 9752 9751 9751 9751 9751 9750 9751 9752 9755 9758 9762 9764
2755.2971 9765 9765 9764 9764 9765 9768 9770 9772 9773 9773 9773 9773 9773
2761.5647 9774 9774 9773 9772 9769 9767 9764 9762 9759 9756 9753 9752 9752
2767.8323 9755 9758 9760 9760 9758 9754 9749 9744 9741 9739 9739 9740 9740
2774.0996 9740 9740 9738 9737 9737 9738 9740 9742 9744 9746 9747 9747 9747
2780.3672 9747 9748 9748 9748 9748 9747 9746 9747 9748 9750 9752 9753 9753
2786.6348 9752 9749 9746 9742 9738 9735 9732 9728 9725 9720 9714 9706 9697
2792.9023 9688 9681 9675 9672 9669 9667 9665 9662 9659 9656 9653 9651 9648
2799.1697 9645 9642 9639 9635 9632 9630 9628 9627 9626 9626 9626 9624 9622
2805.4373 9620 9618 9616 9614 9612 9609 9605 9601 9598 9595 9595 9596 9598
2811.7048 9601 9602 9603 9603 9603 9603 9603 9603 9602 9602 9603 9604 9606
2817.9724 9608 9609 9609 9609 9608 9608 9608 9609 9609 9610 9610 9610 9609
2824.2397 9607 9604 9600 9597 9593 9591 9589 9589 9588 9589 9590 9592 9595
2830.5073 9597 9599 9599 9598 9596 9595 9594 9595 9599 9604 9611 9616 9621
2836.7749 9625 9628 9631 9632 9633 9634 9635 9637 9640 9644 9650 9656 9662
2843.0425 9667 9671 9676 9681 9687 9693 9699 9704 9708 9712 9716 9719 9722
2849.3098 9723 9724 9725 9727 9732 9738 9746 9754 9761 9766 9771 9776 9780
2855.5774 9783 9787 9790 9793 9797 9801 9805 9809 9813 9818 9823 9828 9834
2861.8450 9840 9844 9848 9849 9850 9851 9854 9858 9863 9869 9874 9878 9881
2868.1125 9884 9885 9887 9888 9891 9895 9901 9908 9915 9919 9922 9922 9921
2874.3799 9921 9921 9920 9920 9919 9919 9920 9922 9925 9927 9928 9927 9924
2880.6475 9920 9916 9914 9913 9914 9917 9921 9924 9926 9926 9926 9924 9922
2886.9150 9920 9919 9919 9920 9922 9924 9925 9925 9924 9923 9922 9922 9922
2893.1826 9922 9921 9920 9920 9921 9924 9927 9930 9932 9932 9932 9932 9934
2899.4500 9937 9941 9944 9946 9947 9949 9951 9954 9958 9962 9964 9965 9965
2905.7175 9965 9967 9971 9977 9982 9987 9990 9991 9992 9994 9997 10002 10006
2911.9851 10010 10012 10014 10016 10020 10024 10029 10033 10036 10038 10040
2917.2883 10042 10045 10050 10057 10064 10071 10078 10084 10089 10095 10100
2922.5916 10104 10108 10110 10112 10113 10114 10116 10116 10115 10114 10113
2927.8950 10114 10117 10122 10128 10134 10139 10143 10146 10150 10153 10155
2933.1982 10157 10158 10159 10161 10164 10167 10168 10166 10162 10157 10153
2938.5015 10150 10149 10152 10156 10162 10167 10171 10173 10171 10167 10161
2943.8047 10155 10150 10146 10143 10142 10141 10141 10142 10145 10149 10152
2949.1082 10154 10155 10155 10156 10159 10162 10165 10166 10165 10161 10156
2954.4114 10151 10146 10142 10139 10139 10141 10146 10152 10157 10160 10160
2959.7146 10158 10154 10150 10147 10145 10145 10146 10148 10150 10152 10153
2965.0178 10152 10150 10148 10148 10151 10157 10165 10173 10178 10179 10177
2970.3213 10173 10170 10170 10172 10175 10177 10178 10177 10176 10175 10175
2975.6245 10178 10182 10186 10189 10191 10192 10193 10196 10200 10204 10207
2980.9277 10209 10208 10206 10205 10206 10209 10215 10222 10227 10230 10231
2986.2310 10230 10229 10228 10227 10227 10227 10229 10231 10235 10240 10245
2991.5344 10249 10251 10252 10251 10251 10253 10257 10260 10262 10261 10257
2996.8376 10251 10247 10248 10253 10261 10270 10277 10282 10285 10286 10286
3002.1409 10286 10285 10284 10282 10283 10285 10289 10293 10296 10297 10296
3007.4441 10296 10297 10300 10306 10312 10318 10322 10324 10324 10322 10320
3012.7476 10319 10320 10322 10325 10329 10333 10337 10342 10347 10352 10357
3018.0508 10361 10364 10366 10368 10369 10370 10372 10375 10379 10384 10388
3023.3540 10391 10392 10390 10387 10385 10385 10387 10391 10396 10401 10406
3028.6572 10411 10415 10420 10425 10430 10433 10434 10431 10426 10420 10415
3033.9607 10412 10412 10413 10414 10416 10418 10419 10421 10421 10420 10418
3039.2639 10415 10413 10413 10415 10417 10419 10420 10421 10421 10419 10417
3044.5671 10413 10408 10404 10402 10402 10404 10408 10414 10421 10428 10432
3049.8704 10434 10432 10428 10424 10420 10416 10411 10404 10397 10391 10387
3055.1738 10386 10386 10386 10385 10383 10382 10381 10381 10382 10381 10380
3060.4771 10378 10376 10373 10367 10359 10347 10334 10322 10310 10299 10288
3065.7803 10276 10264 10251 10236 10218 10196 10171 10144 10117 10094 10076
3071.0835 10067 10068 10078 10097 10122 10150 10180 10209 10239 10269 10299
3076.3870 10327 10350 10367 10377 10379 10375 10370 10365 10364 10365 10367
3081.6902 10369 10369 10368 10365 10362 10360 10360 10361 10365 10371 10378
3086.9934 10388 10397 10406 10413 10419 10423 10428 10434 10442 10452 10462
3092.2966 10473 10483 10491 10500 10507 10516 10525 10537 10550 10564 10575
3097.6001 10584 10588 10588 10583 10576 10569 10564 10562 10565 10571 10577
3102.9033 10582 10584 10585 10585 10587 10591 10597 10602 10605 10604 10601
3108.2065 10599 10599 10603 10609 10616 10621 10625 10627 10630 10636 10643
3113.5098 10651 10657 10663 10668 10673 10680 10688 10694 10699 10701 10701
3118.8132 10699 10695 10690 10685 10681 10680 10682 10687 10694 10703 10711
3124.1165 10718 10723 10726 10726 10726 10726 10727 10728 10729 10728 10726
3129.4197 10724 10723 10724 10728 10734 10740 10745 10747 10747 10745 10744
3134.7229 10746 10751 10757 10764 10769 10772 10772 10772 10771 10769 10767
3140.0264 10765 10763 10763 10764 10767 10771 10775 10777 10776 10772 10765
3145.3296 10758 10753 10750 10750 10751 10754 10757 10761 10765 10767 10768
3150.6328 10766 10762 10757 10751 10745 10738 10730 10721 10713 10706 10701
3155.9360 10699 10698 10697 10695 10693 10691 10690 10690 10689 10688 10684
3161.2395 10680 10674 10667 10660 10654 10648 10644 10639 10635 10630 10625
3166.5427 10621 10617 10613 10608 10602 10594 10585 10576 10568 10562 10557
3171.8459 10554 10554 10555 10557 10560 10562 10563 10560 10554 10547 10539
3177.1492 10534 10531 10529 10526 10522 10515 10506 10496 10487 10480 10476
3182.4526 10474 10473 10473 10471 10467 10461 10453 10444 10436 10430 10427
3187.7559 10426 10426 10426 10427 10427 10427 10427 10426 10424 10417 10407
3193.0591 10394 10379 10366 10357 10353 10353 10354 10357 10358 10358 10357
3198.3623 10356 10356 10354 10351 10348 10343 10339 10337 10336 10338 10340
3203.6658 10341 10341 10340 10337 10334 10331 10327 10323 10317 10309 10302
3208.9690 10296 10293 10292 10292 10293 10294 10298 10304 10311 10316 10317
3214.2722 10313 10306 10298 10293 10290 10288 10285 10279 10272 10267 10266
3219.5754 10268 10273 10279 10283 10284 10281 10275 10267 10258 10251 10246
3224.8789 10246 10248 10251 10253 10254 10252 10248 10244 10240 10238 10238
3230.1821 10241 10244 10247 10250 10252 10253 10255 10256 10255 10251 10245
3235.4854 10239 10234 10232 10233 10236 10239 10240 10239 10237 10234 10233
3240.7886 10234 10235 10237 10238 10239 10239 10241 10243 10246 10247 10248
3246.0920 10248 10247 10247 10247 10246 10243 10239 10236 10235 10237 10242
3251.3953 10246 10250 10253 10256 10260 10264 10267 10267 10264 10258 10251
3256.6985 10247 10246 10248 10254 10262 10269 10275 10277 10278 10277 10276
3262.0017 10277 10278 10279 10280 10278 10275 10270 10264 10260 10257 10257
3267.3052 10258 10259 10260 10259 10258 10256 10253 10250 10248 10247 10248
3272.6084 10252 10257 10261 10263 10264 10264 10265 10267 10268 10269 10268
3277.9116 10267 10267 10267 10268 10269 10269 10267 10263 10261 10260 10261
3283.2148 10263 10266 10269 10270 10271 10271 10270 10268 10268 10269 10272
3288.5183 10278 10285 10291 10296 10297 10297 10297 10297 10298 10300 10302
3293.8215 10304 10306 10306 10305 10302 10298 10295 10292 10293 10296 10300
3299.1248 10305 10307 10308 10308 10308 10309 10312 10316 10319 10319 10318
3304.4280 10314 10310 10307 10306 10308 10311 10315 10319 10321 10322 10322
3309.7314 10322 10324 10329 10335 10341 10345 10348 10348 10348 10347 10346
3315.0347 10346 10346 10347 10351 10356 10363 10369 10375 10379 10383 10386
3320.3379 10390 10394 10397 10399 10399 10399 10399 10400 10400 10400 10398
3325.6411 10397 10396 10397 10401 10408 10417 10427 10435 10441 10445 10445
3330.9446 10445 10444 10446 10449 10456 10464 10474 10485 10497 10509 10521
3336.2478 10532 10540 10544 10545 10544 10543 10547 10558 10574 10592 10608
3341.5510 10619 10625 10628 10631 10637 10646 10658 10669 10681 10692 10703
3346.8542 10714 10726 10737 10747 10753 10754 10750 10742 10734 10727 10724
3352.1577 10723 10721 10717 10710 10700 10688 10675 10661 10647 10632 10618
3357.4609 10603 10587 10568 10546 10521 10494 10466 10441 10419 10401 10388
3362.7642 10378 10370 10362 10353 10341 10326 10310 10293 10276 10260 10246
3368.0674 10230 10212 10189 10163 10135 10109 10087 10071 10059 10048 10036
3373.3708 10021 10004 9985 9966 9946 9929 9913 9901 9890 9879 9865 9847 9827
3379.6382 9807 9789 9774 9763 9753 9744 9735 9724 9713 9700 9685 9669 9654
3385.9058 9641 9633 9630 9630 9631 9631 9626 9618 9606 9593 9579 9565 9551
3392.1733 9538 9528 9520 9515 9513 9512 9513 9516 9521 9526 9530 9532 9529
3398.4409 9524 9516 9508 9498 9488 9477 9466 9456 9450 9447 9448 9452 9458
3404.7083 9465 9473 9480 9487 9491 9495 9496 9496 9496 9496 9497 9499 9503
3410.9758 9507 9511 9514 9515 9515 9515 9516 9519 9524 9532 9540 9548 9552
3417.2434 9553 9551 9548 9544 9540 9537 9532 9527 9521 9516 9512 9508 9501
3423.5110 9492 9480 9466 9453 9440 9428 9416 9404 9393 9383 9374 9365 9355
3429.7783 9345 9335 9328 9325 9328 9333 9339 9342 9341 9336 9327 9316 9306
3436.0459 9297 9290 9285 9282 9280 9279 9279 9280 9282 9284 9287 9290 9291
3442.3135 9292 9291 9289 9287 9286 9287 9290 9294 9297 9298 9297 9293 9287
3448.5811 9280 9273 9266 9260 9257 9256 9257 9259 9259 9256 9252 9248 9245
3454.8484 9243 9244 9245 9246 9246 9246 9245 9243 9240 9235 9230 9226 9226
3461.1160 9228 9231 9234 9235 9233 9230 9228 9229 9231 9236 9240 9242 9240
3467.3835 9234 9224 9214 9204 9197 9194 9194 9196 9199 9203 9208 9213 9217
3473.6511 9220 9219 9215 9211 9209 9210 9215 9221 9224 9220 9212 9200 9188
3479.9185 9180 9177 9178 9181 9184 9187 9191 9195 9199 9203 9205 9206 9205
3486.1860 9202 9198 9192 9186 9179 9172 9165 9158 9153 9151 9152 9156 9160
3492.4536 9165 9170 9175 9180 9186 9191 9194 9192 9185 9174 9162 9152 9148
3498.7212 9151 9160 9172 9184 9193 9197 9196 9191 9185 9180 9176 9173 9170
3504.9885 9166 9160 9155 9150 9147 9147 9151 9160 9170 9180 9187 9191 9190
3511.2561 9186 9181 9176 9173 9171 9170 9169 9167 9166 9166 9167 9168 9170
3517.5237 9171 9171 9171 9171 9171 9169 9167 9164 9162 9161 9160 9159 9156
3523.7913 9153 9149 9147 9146 9147 9148 9148 9147 9145 9143 9142 9142 9143
3530.0586 9146 9148 9151 9152 9151 9150 9149 9148 9146 9144 9141 9138 9137
3536.3262 9139 9144 9149 9152 9153 9152 9149 9145 9142 9138 9135 9133 9132
3542.5938 9134 9139 9147 9155 9162 9167 9168 9165 9157 9146 9133 9122 9116
3548.8613 9115 9119 9125 9131 9136 9138 9140 9141 9142 9143 9144 9146 9148
3555.1287 9148 9147 9144 9138 9132 9128 9127 9130 9135 9139 9140 9137 9131
3561.3962 9124 9118 9114 9111 9110 9110 9111 9114 9119 9124 9128 9128 9124
3567.6638 9118 9112 9109 9110 9114 9121 9129 9134 9134 9129 9121 9112 9106
3573.9314 9102 9102 9102 9102 9102 9104 9107 9111 9115 9118 9122 9125 9128
3580.1990 9131 9131 9129 9125 9119 9113 9109 9107 9108 9111 9115 9119 9121
3586.4663 9119 9114 9109 9109 9113 9119 9123 9123 9119 9114 9109 9106 9104
3592.7339 9103 9100 9095 9087 9078 9070 9064 9064 9070 9082 9098 9114 9125
3599.0015 9129 9126 9117 9108 9099 9093 9089 9085 9081 9076 9071 9067 9063
3605.2690 9063 9065 9069 9074 9079 9084 9090 9097 9102 9103 9097 9085 9072
3611.5364 9060 9054 9058 9072 9088 9101 9107 9106 9098 9086 9073 9062 9056
3617.8040 9058 9069 9084 9095 9098 9092 9083 9074 9068 9066 9068 9069 9069
3624.0715 9066 9060 9053 9047 9045 9045 9047 9050 9055 9064 9078 9090 9096
3630.3391 9095 9091 9083 9073 9062 9051 9042 9039 9043 9049 9056 9059 9060
3636.6064 9058 9056 9056 9057 9060 9062 9064 9066 9069 9074 9078 9079 9076
3642.8740 9068 9059 9050 9043 9038 9036 9035 9035 9036 9038 9044 9053 9062
3649.1416 9068 9065 9053 9037 9025 9020 9022 9029 9036 9043 9046 9046 9044
3655.4092 9042 9044 9051 9059 9064 9064 9062 9057 9052 9050 9049 9050 9050
3661.6765 9051 9050 9048 9046 9045 9044 9042 9041 9040 9037 9033 9027 9021
3667.9441 9014 9011 9015 9028 9047 9063 9068 9064 9053 9041 9028 9016 9010
3674.2117 9017 9047 9094 9124 9124 9110 9092 9075 9059 9048 9039 9035 9032
3680.4792 9030 9027 9025 9024 9023 9023 9023 9023 9023 9023 9024 9025 9024
3686.7466 9020 9014 9007 9004 9008 9015 9024 9033 9040 9044 9047 9047 9047
3693.0142 9045 9044 9042 9041 9038 9034 9030 9026 9024 9024 9027 9030 9031
3699.2817 9027 9021 9014 9013 9022 9039 9058 9070 9074 9070 9063 9055 9049
3705.5493 9044 9040 9037 9034 9031 9029 9026 9022 9018 9015 9015 9021 9035
3711.8167 9051 9061 9062 9057 9051 9046 9043 9042 9041 9040 9040 9040 9043
3718.0842 9046 9048 9047 9042 9037 9036 9039 9047 9057 9063 9062 9057 9049
3724.3518 9043 9039 9037 9036 9036 9035 9033 9031 9027 9023 9017 9012 9007
3730.6194 9005 9008 9016 9027 9036 9042 9046 9052 9060 9068 9072 9070 9063
3736.8867 9055 9050 9048 9047 9049 9051 9053 9055 9055 9051 9043 9033 9023
3743.1543 9019 9031 9068 9108 9122 9113 9094 9071 9048 9027 9010 9001 8999
3749.4219 9000 8996 8989 8984 8989 9009 9037 9057 9067 9068 9065 9062 9059
3755.6895 9057 9056 9053 9048 9042 9037 9035 9037 9043 9048 9052 9054 9054
3761.9568 9053 9050 9046 9040 9033 9029 9030 9036 9046 9053 9056 9054 9050
3768.2244 9046 9045 9048 9053 9056 9055 9051 9046 9041 9037 9035 9035 9037
3774.4919 9041 9045 9048 9049 9047 9044 9040 9038 9039 9045 9052 9059 9063
3780.7595 9064 9062 9059 9056 9052 9049 9047 9045 9042 9038 9032 9026 9021
3787.0269 9019 9019 9022 9025 9029 9033 9037 9040 9043 9047 9052 9056 9058
3793.2944 9057 9052 9043 9033 9024 9020 9023 9030 9036 9036 9031 9024 9018
3799.5620 9014 9019 9034 9057 9074 9076 9068 9058 9050 9045 9042 9042 9042
3805.8296 9042 9043 9045 9047 9049 9049 9049 9049 9049 9048 9047 9045 9042
3812.0969 9041 9039 9037 9036 9035 9038 9045 9059 9073 9080 9078 9069 9058
3818.3645 9045 9030 9015 9003 8999 9010 9031 9048 9058 9061 9060 9057 9051
3824.6321 9045 9040 9036 9036 9038 9044 9049 9053 9055 9054 9050 9046 9043
3830.8997 9042 9043 9045 9045 9046 9046 9047 9050 9052 9052 9049 9045 9042
3837.1670 9040 9040 9042 9045 9050 9057 9065 9072 9075 9073 9068 9064 9062
3843.4346 9065 9070 9073 9072 9067 9058 9049 9040 9032 9027 9025 9026 9029
3849.7021 9033 9038 9040 9038 9030 9019 9016 9037 9075 9103 9109 9100 9087
3855.9697 9074 9067 9064 9065 9065 9063 9057 9052 9047 9046 9048 9053 9058
3862.2371 9061 9064 9066 9069 9074 9079 9080 9077 9068 9057 9045 9033 9024
3868.5046 9024 9035 9057 9076 9082 9077 9068 9058 9050 9046 9047 9052 9058
3874.7722 9062 9062 9059 9056 9053 9050 9048 9046 9044 9042 9042 9044 9049
3881.0398 9056 9062 9067 9070 9071 9069 9065 9062 9061 9064 9068 9071 9070
3887.3071 9067 9062 9057 9052 9046 9042 9041 9046 9054 9061 9065 9064 9060
3893.5747 9057 9055 9056 9058 9059 9058 9054 9051 9048 9049 9051 9053 9050
3899.8423 9043 9032 9021 9012 9008 9010 9016 9025 9037 9050 9064 9075 9082
3906.1099 9084 9080 9073 9064 9055 9049 9047 9049 9053 9059 9063 9066 9067
3912.3772 9067 9067 9065 9061 9054 9047 9041 9040 9045 9055 9064 9068 9068
3918.6448 9064 9059 9056 9054 9053 9051 9048 9044 9041 9042 9046 9054 9062
3924.9124 9066 9064 9057 9049 9041 9036 9036 9038 9040 9042 9041 9041 9042
3931.1799 9047 9054 9062 9066 9065 9061 9057 9053 9053 9056 9061 9066 9069
3937.4473 9069 9066 9062 9058 9055 9053 9053 9053 9053 9053 9052 9051 9048
3943.7148 9045 9043 9043 9045 9049 9052 9055 9058 9061 9064 9068 9072 9074
3949.9824 9074 9072 9069 9067 9067 9067 9069 9070 9069 9067 9064 9060 9056
3956.2500 9053 9050 9046 9043 9041 9040 9042 9046 9053 9060 9067 9073 9078
3962.5173 9081 9083 9082 9080 9076 9071 9067 9062 9059 9057 9055 9053 9051
3968.7849 9049 9049 9050 9055 9062 9070 9077 9080 9078 9073 9067 9061 9057
3975.0525 9052 9049 9047 9046 9046 9047 9047 9047 9047 9048 9050 9054 9057
3981.3201 9060 9061 9060 9060 9061 9062 9063 9063 9059 9055 9050 9048 9046
3987.5874 9044 9043 9041 9042 9045 9052 9060 9066 9068 9065 9061 9058 9057
3993.8550 9059 9062 9064 9064 9063 9060 9057 9055 9053 9052 9053 9054 9057
4000.1226 9060
##END= 
