##TITLE= bkg
##JCAMP-DX= 4.24
##DATA TYPE= INFRARED SPECTRUM
##ORIGIN= JASCO
##OWNER= 
##DATE= 22/03/31
##TIME= 09:16:05
##SPECTROMETER/DATA SYSTEM= 
##RESOLUTION= 
##DELTAX=   0.48211674
##XUNITS= 1/CM
##YUNITS= ARBITRARY UNITS
##XFACTOR= 1.00000
##YFACTOR= 1E-005
##FIRSTX=   599.7532
##LASTX=  4000.1226
##NPOINTS=     7054
##FIRSTY=      1.19719
##MAXY=     10.28242
##MINY=      0.27541
##XYDATA= (X++(Y..Y))
599.7532 119719 119597 120230 121486 123004 124382 125378 125981 126349 126661
604.5744 127012 127388 127729 127999 128218 128434 128692 129006 129371 129792
609.3956 130290 130895 131612 132400 133173 133833 134322 134645 134845 134936
614.2167 134837 134382 133417 131954 130274 128892 128362 129019 130803 133274
619.0379 135812 137897 139317 140180 140770 141318 141855 142209 142147 141559
623.8591 140577 139545 138865 138801 139348 140251 141143 141742 141975 141985
628.6802 142012 142237 142688 143243 143727 144021 144112 144064 143936 143741
633.5014 143461 143110 142790 142672 142910 143537 144423 145326 146011 146360
638.3226 146414 146320 146241 146265 146382 146505 146526 146365 145995 145446
643.1437 144801 144172 143668 143347 143165 142968 142536 141695 140434 138957
647.9649 137624 136800 136681 137207 138104 139028 139722 140108 140274 140384
652.7861 140577 140908 141350 141844 142355 142879 143422 143945 144356 144564
657.6072 144563 144485 144553 144958 145756 146863 148141 149491 150868 152250
662.4284 153647 155183 157104 159521 161863 162388 158334 147035 127672 102647
667.2496 77522 59165 52884 60080 77726 99934 120645 135942 144896 148860
672.0707 150004 150061 149866 149580 149160 148651 148204 147936 147835 147777
676.8919 147624 147308 146864 146403 146062 145951 146123 146563 147209 147977
681.7131 148784 149561 150265 150899 151526 152254 153186 154348 155649 156905
686.5342 157922 158600 158991 159277 159702 160474 161698 163349 165285 167293
691.3554 169165 170769 172090 173214 174260 175289 176267 177103 177744 178245
696.1766 178763 179466 180422 181552 182685 183672 184479 185184 185896 186664
700.9977 187446 188160 188761 189284 189822 190457 191212 192055 192933 193808
705.8189 194664 195492 196278 197019 197734 198466 199248 200067 200855 201519
710.6401 202001 202313 202538 202784 203139 203635 204235 204858 205403 205805
715.4612 206058 206211 206275 206126 205454 203889 201248 197798 194309 191803
720.2824 191090 192343 195000 198048 200532 201983 202516 202609 202745 203153
725.1036 203783 204440 204957 205278 205435 205485 205470 205419 205365 205349
729.9247 205397 205506 205633 205714 205685 205501 205144 204621 203947 203134
734.7459 202174 201038 199685 198079 196213 194111 191814 189362 186770 184027
739.5671 181113 178024 174783 171436 168018 164525 160913 157133 153185 149144
744.3882 145149 141342 137811 134565 131555 128737 126115 123751 121745 120183
749.2094 119105 118507 118377 118738 119668 121261 123531 126319 129291 132039
754.0306 134263 135896 137091 138056 138878 139471 139722 139710 139799 140492
758.8517 142096 144425 146786 148275 148232 146562 143750 140581 137774 135740
763.6729 134570 134176 134466 135424 137099 139527 142683 146470 150749 155375
768.4941 160230 165233 170336 175521 180778 186093 191441 196774 202016 207060
773.3152 211780 216058 219829 223108 225989 228603 231061 233404 235599 237571
778.1364 239255 240637 241762 242703 243524 244256 244890 245400 245767 245991
782.9576 246101 246146 246187 246284 246490 246827 247273 247763 248204 248513
787.7787 248648 248616 248462 248238 247993 247767 247605 247549 247620 247791
792.5999 247977 248071 248003 247782 247504 247300 247264 247404 247646 247883
797.4211 248034 248079 248046 247982 247924 247894 247910 247997 248184 248479
802.2422 248855 249254 249612 249887 250077 250207 250306 250381 250423 250427
807.0634 250421 250473 250669 251068 251664 252374 253073 253645 254041 254291
811.8846 254487 254732 255087 255547 256041 256466 256738 256828 256781 256694
816.7057 256673 256782 257021 257347 257714 258105 258534 259009 259505 259962
821.5269 260326 260604 260880 261283 261902 262737 263687 264611 265406 266052
826.3481 266604 267142 267721 268351 269010 269670 270314 270928 271492 271982
831.1693 272380 272700 272988 273314 273742 274306 274991 275743 276488 277160
835.9904 277731 278219 278674 279149 279664 280189 280663 281029 281279 281469
840.8116 281694 282043 282555 283200 283901 284577 285173 285670 286072 286385
845.6328 286606 286736 286792 286818 286872 287010 287262 287622 288051 288497
850.4539 288920 289306 289684 290110 290644 291323 292146 293071 294035 294979
855.2751 295860 296659 297382 298061 298746 299491 300336 301284 302306 303359
860.0963 304411 305463 306531 307630 308746 309840 310879 311863 312838 313876
864.9174 315029 316294 317605 318851 319929 320785 321440 321979 322516 323151
869.7386 323939 324891 325986 327197 328494 329840 331181 332459 333634 334711
874.5598 335747 336822 337995 339268 340597 341928 343238 344555 345923 347356
879.3809 348806 350175 351366 352344 353161 353935 354793 355821 357041 358421
884.2021 359905 361439 362971 364454 365846 367123 368293 369400 370507 371670
889.0233 372912 374219 375551 376866 378131 379334 380478 381581 382671 383777
893.8444 384911 386052 387149 388142 389007 389783 390578 391514 392669 394032
898.6656 395509 396968 398308 399490 400536 401498 402428 403372 404372 405463
903.4868 406658 407924 409184 410344 411344 412186 412932 413662 414423 415214
908.3079 415996 416734 417433 418140 418921 419822 420844 421936 423024 424043
913.1291 424973 425840 426701 427602 428550 429503 430398 431188 431871 432486
917.9503 433085 433695 434298 434848 435307 435690 436069 436546 437192 438002
922.7714 438887 439715 440383 440871 441252 441641 442126 442722 443372 443993
927.5926 444533 444999 445443 445929 446489 447117 447784 448460 449134 449810
932.4138 450496 451188 451856 452459 452955 453324 453583 453782 453990 454274
937.2349 454672 455189 455794 456443 457089 457694 458226 458668 459016 459283
942.0561 459499 459695 459892 460082 460237 460323 460328 460265 460166 460061
946.8773 459962 459866 459778 459726 459761 459918 460191 460517 460805 460988
951.6984 461059 461073 461104 461190 461310 461408 461437 461406 461379 461435
956.5196 461623 461932 462302 462663 462964 463191 463358 463490 463608 463723
961.3408 463842 463958 464052 464104 464102 464060 464022 464046 464183 464454
966.1619 464845 465323 465846 466384 466910 467400 467829 468185 468479 468749
970.9831 469047 469417 469878 470423 471035 471699 472411 473169 473963 474772
975.8043 475570 476332 477046 477714 478353 479000 479704 480519 481472 482551
980.6254 483696 484830 485889 486861 487782 488714 489704 490763 491871 492998
985.4466 494135 495297 496517 497821 499208 500649 502092 503479 504760 505903
990.2678 506900 507770 508561 509341 510181 511130 512190 513313 514420 515443
995.0889 516355 517190 518018 518904 519870 520887 521887 522801 523594 524272
999.9101 524877 525459 526062 526705 527381 528068 528735 529358 529932 530466
1004.7313 530972 531454 531891 532245 532481 532592 532611 532605 532637
1009.0703 532724 532821 532835 532665 532263 531662 530971 530333 529872
1013.4094 529649 529644 529781 529952 530064 530064 529947 529749 529522
1017.7484 529304 529106 528913 528709 528488 528263 528054 527870 527699
1022.0875 527513 527288 527016 526714 526409 526126 525873 525637 525389
1026.4265 525094 524725 524272 523753 523207 522680 522210 521807 521458
1030.7656 521133 520807 520463 520101 519727 519352 518986 518646 518345
1035.1046 518092 517869 517637 517342 516936 516401 515759 515060 514367
1039.4437 513726 513151 512615 512072 511471 510790 510041 509276 508554
1043.7827 507917 507367 506865 506352 505786 505159 504493 503824 503176
1048.1218 502562 501985 501451 500968 500530 500111 499662 499139 498522
1052.4608 497829 497095 496348 495594 494820 494026 493240 492518 491908
1056.7999 491412 490974 490498 489903 489159 488306 487434 486636 485974
1061.1389 485457 485040 484650 484202 483629 482902 482042 481113 480200
1065.4780 479368 478640 477992 477380 476775 476191 475672 475260 474962
1069.8170 474739 474520 474243 473880 473441 472952 472433 471888 471322
1074.1561 470766 470282 469945 469805 469844 469972 470065 470018 469795
1078.4951 469444 469064 468757 468584 468557 468656 468853 469133 469495
1082.8342 469941 470465 471046 471644 472207 472688 473067 473363 473636
1087.1732 473964 474409 474987 475671 476408 477153 477884 478603 479333
1091.5123 480101 480937 481865 482886 483963 485034 486033 486934 487770
1095.8513 488614 489534 490548 491611 492645 493586 494421 495180 495910
1100.1904 496644 497392 498158 498950 499798 500735 501783 502938 504164
1104.5294 505410 506623 507766 508835 509852 510856 511879 512923 513963
1108.8685 514969 515933 516885 517876 518941 520061 521159 522136 522924
1113.2075 523535 524049 524581 525218 525991 526879 527837 528833 529847
1117.5466 530860 531847 532777 533638 534453 535282 536184 537185 538259
1121.8856 539346 540386 541342 542202 542965 543631 544203 544710 545212
1126.2247 545785 546476 547284 548160 549048 549932 550845 551842 552949
1130.5637 554138 555345 556509 557607 558653 559660 560614 561473 562205
1134.9028 562827 563412 564063 564854 565803 566865 567963 569010 569932
1139.2418 570667 571178 571475 571643 571830 572213 572926 573995 575323
1143.5809 576733 578058 579225 580290 581407 582749 584426 586430 588661
1147.9199 590979 593284 595554 597837 600215 602747 605444 608272 611174
1152.2590 614095 616998 619868 622701 625499 628263 630992 633684 636338
1156.5980 638950 641516 644027 646470 648830 651100 653281 655390 657446
1160.9371 659459 661420 663295 665039 666615 668029 669342 670666 672123
1165.2761 673801 675708 677771 679862 681853 683661 685273 686741 688156
1169.6152 689619 691201 692903 694629 696193 697398 698140 698503 698767
1173.9542 699293 700342 701919 703753 705408 706482 706760 706262 705181
1178.2933 703806 702478 701591 701578 702824 705522 709548 714471 719697
1182.6323 724679 729070 732731 735636 737788 739207 740009 740469 740981
1186.9714 741902 743382 745302 747362 749265 750873 752246 753546 754906
1191.3104 756354 757823 759241 760595 761960 763442 765118 766968 768883
1195.6495 770707 772320 773709 774991 776370 778045 780119 782556 785206
1199.9885 787887 790457 792859 795105 797243 799312 801328 803291 805196
1204.3276 807044 808844 810609 812353 814092 815849 817653 819535 821491
1208.6666 823440 825219 826621 827510 827935 828174 828649 829741 831601
1213.0057 834079 836812 839412 841636 843446 844931 846193 847282 848219
1217.3447 849066 849956 851048 852426 854049 855779 857485 859119 860703
1221.6838 862233 863582 864519 864864 864667 864284 864257 865050 866800
1226.0228 869244 871873 874192 875935 877123 877956 878662 879390 880193
1230.3619 881076 882026 883021 884021 884975 885850 886670 887509 888453
1234.7009 889534 890702 891838 892824 893602 894207 894735 895295 895967
1239.0400 896790 897775 898899 900083 901167 901933 902200 901949 901394
1243.3790 900930 900963 901703 903051 904646 906034 906868 907021 906575
1247.7181 905705 904558 903181 901532 899537 897141 894319 891057 887318
1252.0571 883057 878244 872898 867078 860844 854239 847306 840146 832925
1256.3962 825785 818704 811432 803613 795101 786283 778168 772131 769375
1260.7352 770411 774838 781558 789307 797209 805015 812846 820576 827276
1265.0743 831207 830634 825161 816765 809649 808595 816474 832337 851347
1269.4133 866825 873375 869309 857060 841507 827371 817252 811230 807859
1273.7524 805608 803795 802654 802815 804748 808517 813857 820385 827739
1278.0914 835650 843962 852654 861839 871677 882238 893366 904662 915621
1282.4305 925852 935259 944010 952292 960001 966591 971305 973676 974024
1286.7695 973532 973787 975998 980388 986163 992051 997042 1000830 1003731
1291.1086 1006251 1008675 1010954 1012873 1014249 1014990 1015010 1014206
1294.9656 1012581 1010444 1008458 1007408 1007795 1009544 1012035 1014455
1298.8225 1016220 1017197 1017624 1017866 1018178 1018628 1019135 1019561
1302.6794 1019784 1019745 1019481 1019101 1018690 1018171 1017249 1015550
1306.5364 1012923 1009733 1006902 1005560 1006421 1009205 1012443 1013876
1310.3933 1011347 1003853 992241 979156 968117 962078 962146 967116 974093
1314.7323 979831 982022 979870 973805 964822 954067 942942 933412 927925
1319.0714 928639 936308 949578 965307 979850 990576 996766 999444 1000420
1323.4104 1001226 1002531 1004214 1005815 1006983 1007651 1007953 1008022
1327.2673 1007850 1007310 1006311 1004975 1003657 1002774 1002510 1002676
1331.1243 1002876 1002910 1003029 1003694 1004871 1005404 1003131 995920
1334.9812 983027 965698 946377 926893 907029 884794 858596 829956 804702
1339.3203 791315 796969 823490 865741 913540 956045 986106 1002266 1007758
1343.6593 1007648 1006131 1005317 1005543 1006277 1006733 1006039 1003398
1347.5162 998525 992155 986047 982260 982113 985553 991322 997603 1002579
1351.8553 1004642 1002552 995932 985937 975377 967758 965548 968845 975460
1356.1943 982382 987453 989993 990098 987461 980805 968268 948217 919853
1360.5334 883637 841958 800040 766122 749739 758028 791815 844022 901825
1364.8724 951577 983743 995312 989102 971304 949119 929332 917475 916869
1369.2115 927563 945835 964885 976634 973950 952674 913172 861201 807538
1373.5505 765626 747282 757901 793671 842744 890210 924390 941097 943804
1377.8896 940200 937590 939803 946781 956179 965339 972440 976693 978183
1382.2286 977797 977014 976971 976807 972356 956823 924216 874245 815581
1386.5677 764480 738302 746972 787442 844884 900262 939740 960111 967131
1390.9067 968428 966215 954953 925515 872971 802743 730920 678107 659898
1395.2458 678967 723010 769898 797835 795660 768086 733054 712503 721559
1399.5848 761939 822741 887131 940159 973135 983350 971599 940888 897484
1403.9240 852236 819118 810140 829333 870086 918182 958855 983404 991469
1408.2629 988444 980725 972298 964339 956927 950807 947787 949757 957267
1412.6021 968593 979738 985497 981312 965155 938227 903599 863327 816229
1416.9410 758784 689652 615227 551739 520753 539100 608515 711464 816608
1421.2802 891843 918314 898122 851927 808110 789508 804456 845969 898089
1425.6191 944710 975645 987447 980504 956260 917370 870190 826122 798744
1429.9583 797261 820668 857570 892725 915956 926656 930202 929170 917024
1434.2972 880609 810982 714870 617456 552758 546699 603448 703535 814465
1438.6364 906662 965233 991964 998825 998758 999460 1002373 1005392 1006355
1442.9753 1005051 1003045 1001798 1000286 993720 974880 938343 885710 828284
1447.3145 784191 770231 792640 842591 899820 942693 958823 950017 929050
1451.6534 910802 903238 903111 897996 872810 817230 730616 622738 510520
1455.9926 412656 344535 315342 327693 378719 461206 564352 674907 779485
1460.3315 867520 932990 973437 987121 971352 924661 852156 769623 701442
1464.6707 671346 690803 752635 834603 911019 964926 993278 1002777 1000470
1469.0096 986206 951978 888135 792167 674553 558116 470642 433784 453274
1473.3488 515500 593042 657306 692094 700673 702183 719463 765534 836540
1477.6877 914573 977674 1010629 1010889 987741 956662 932476 924335 933905
1482.0269 956620 984720 1010250 1026571 1028242 1010740 971668 913438 844953
1486.3658 779354 727600 691782 663797 631814 590804 549296 526574 541549
1490.7050 600948 694847 801674 897895 965395 993511 978094 921714 835693
1495.0439 740317 659458 610671 597177 608199 628123 647748 669026 700087
1499.3831 745397 799710 850759 887887 908768 918292 920632 911522 877777
1503.7220 805371 690626 546525 399575 279072 205429 184155 207812 263011
1508.0612 337095 420644 505942 584639 647953 689955 711343 720191 728162
1512.4001 743954 767807 790341 796518 772919 715110 631904 544283 478515
1516.7393 455392 479980 537201 596650 625459 603370 532428 436306 349743
1521.0782 303464 311742 367840 448604 525481 576755 595477 589734 575750
1525.4174 568168 573332 589141 610433 635041 665673 706419 757017 809554
1529.7563 850112 864211 842727 785619 702653 611628 534549 492008 496782
1534.0955 548866 634376 729179 805724 840370 819127 741099 619386 478643
1538.4344 348529 254153 207453 204372 229880 267691 308195 349599 392869
1542.7736 436013 473402 500933 522221 549532 597208 671454 763583 851700
1547.1125 910192 921701 885320 817513 745966 699160 695304 734435 797079
1551.4517 851369 867034 830444 752611 664531 601023 581590 599421 625271
1555.7906 623908 573162 474617 350938 233495 149026 112642 128525 194115
1560.1298 302601 441959 593144 731504 833024 882955 882021 846518 802016
1564.4688 773569 776483 810816 861216 902278 908296 864604 776002 667602
1568.8079 576072 534260 556635 633479 737130 836304 909528 949861 959622
1573.1469 941159 892165 809755 699820 583160 491689 455292 487126 576824
1577.4860 695872 811535 900730 956402 984699 996976 1002573 1005995 1008191
1581.8250 1009178 1009544 1010269 1011858 1013979 1015889 1017100 1017670
1585.6819 1017927 1018006 1017594 1016041 1012721 1007388 1000415 992846
1589.5389 986213 982071 981286 983340 986108 986465 981683 971016 956528
1593.8779 942514 933656 932912 940347 953525 969018 983916 996442 1005647
1598.2170 1010856 1011570 1007815 1000388 990535 979333 967480 955871 946428
1602.5560 942062 945213 955717 969727 980972 983911 976754 962168 945159
1606.8951 929775 917161 906387 897110 891562 893832 906704 928565 953167
1611.2341 972941 983514 985685 982728 974656 954204 908962 829959 721707
1615.5732 606278 516891 483184 516431 603741 714912 817505 890646 929584
1619.9122 939959 927889 894216 837121 760220 678647 616880 598146 631567
1624.2513 705327 790622 854660 875728 852470 803080 755543 734310 749928
1628.5903 796127 854987 906924 940042 953858 955614 951823 940798 911592
1632.9294 850748 752900 628252 501545 402526 353375 360297 413474 494118
1637.2684 583469 668551 742820 803521 849041 878407 892574 895611 893984
1641.6075 893650 896344 897294 886165 851441 786477 694131 587317 484962
1645.9465 405559 361761 358387 393502 460183 546913 636864 708450 739428
1650.2856 714161 630770 504047 362062 237794 159459 143231 190311 288351
1654.6246 416087 549625 668664 760884 823270 860296 880218 891193 898388
1658.9637 902394 899024 880971 841763 781115 708816 643728 606786 611113
1663.3027 655176 723610 795176 852289 885808 893109 873203 824731 749227
1667.6418 656204 563996 493509 458475 459495 486486 527175 574222 625043
1671.9808 675330 713460 722774 691976 626268 549947 496778 493233 544800
1676.3199 633473 727170 794892 819337 801602 757592 709245 674653 660508
1680.6589 659309 652627 619834 549132 445770 332778 242935 205308 232846
1684.9980 317098 432332 546526 633609 681501 693308 682610 666074 656971
1689.3370 661834 680609 709109 741859 773661 799277 812035 803277 764376
1693.6761 691457 590617 480009 385973 333439 334512 381082 446081 493975
1698.0151 496323 445256 358193 270947 221970 235012 308641 417766 526081
1702.3542 602538 633160 622871 588371 548048 515320 497755 499492 522685
1706.6932 565990 622058 677766 718943 737341 735168 723686 716359 720702
1711.0323 733726 743552 736071 702895 646342 578828 516811 472306 446603
1715.3713 430085 408869 374701 332031 297416 291092 325659 398740 493775
1719.7104 587859 661503 704994 719201 712282 695257 678500 669447 671208
1724.0494 682215 697504 711490 720783 725028 725082 720132 706583 680402
1728.3885 641606 597246 559588 539459 538554 546080 542959 512104 449106
1732.7275 366856 290942 248120 254194 307765 392421 484874 563704 614530
1737.0667 631033 614205 572033 519266 474852 455641 468505 505926 549128
1741.4056 578032 582228 566015 544419 533221 539667 559330 579973 588952
1745.7448 579515 553174 518038 484662 461325 450567 448498 447604 441953
1750.0837 431892 425024 432336 461626 512310 574791 634466 677628 696015
1754.4229 688423 659921 620013 580486 552886 545484 560392 592116 628623
1758.7618 655045 658999 635702 590764 538997 499003 485457 502761 543618
1763.1010 593423 637736 668104 682898 683783 671727 646377 609200 566933
1767.4399 531147 512704 514428 527445 534613 519753 477276 416383 357251
1771.7791 321357 321305 355497 410041 466331 509915 535998 549199 558534
1776.1180 571049 587819 604085 612691 608353 590471 563545 535619 515589
1780.4572 510178 521245 544468 570433 588358 591081 578669 558415 540990
1784.7961 534945 542782 560631 581188 597639 606166 606047 598063 582733
1789.1353 559558 527624 487152 441221 396630 362950 349398 360504 392889
1793.4742 435595 474685 499949 509682 510296 510900 516556 524944 528658
1797.8134 521223 502212 477810 456765 445073 443296 447965 455249 463735
1802.1523 474419 488539 505460 522335 535531 542500 542787 537847 530169
1806.4915 522284 515875 511054 506131 498355 485656 468510 450569 437274
1810.8304 433071 438990 452167 467565 480597 488900 492364 491888 488150
1815.1696 481311 471618 460121 448764 439721 434449 433051 434263 436031
1819.5085 436409 434407 430378 425624 421274 417027 410708 399304 381184
1823.8477 358203 336068 322219 322036 335411 355807 372650 376054 361558
1828.1866 332479 298687 272358 262754 272496 297005 327186 353809 371289
1832.5258 379078 380339 379103 377763 376275 373174 367378 359458 351613
1836.8647 346481 345639 348725 353671 357878 359568 358442 355150 349930
1841.2039 341488 327266 305354 276974 247622 225535 217852 226675 247587
1845.5428 271803 290723 300095 301326 299463 299534 303704 310800 317915
1849.8820 322593 324090 323234 321420 319674 318317 317193 316054 314790
1854.2209 313428 312010 310499 308758 306631 304054 301150 298236 295696
1858.5601 293798 292542 291680 290870 289894 288783 287768 287090 286774
1862.8990 286488 285583 283296 279024 272505 263794 253088 240592 226648
1867.2382 212125 198790 189205 185961 190488 202124 218093 234522 247990
1871.5771 256736 260927 261982 261527 260636 259683 258646 257467 256197
1875.9163 254918 253635 252270 250766 249160 247581 246161 244966 243979
1880.2552 243115 242237 241175 239758 237883 235559 232931 230251 227861
1884.5944 226151 225435 225683 226229 225722 222567 215811 205991 195332
1888.9333 186971 183521 185797 192456 200744 207819 211849 212343 209824
1893.2725 205295 199911 194884 191368 190147 191270 193943 196883 198951
1897.6115 199654 199204 198157 196970 195803 194605 193323 191992 190662
1901.9506 189308 187845 186255 184666 183290 182238 181380 180387 178909
1906.2896 176762 173990 170784 167386 164063 161146 159051 158173 158700
1910.6287 160432 162767 164888 166093 166105 165182 163930 162867 161979
1914.9677 160556 157495 152010 144341 136004 129318 126370 127974 133192
1919.3068 139690 144747 146379 144054 138746 132405 127126 124384 124583
1923.6458 127052 130451 133387 134962 135010 133955 132431 130910 129550
1927.9849 128285 127004 125683 124372 123111 121867 120557 119119 117574
1932.3239 116023 114585 113328 112236 111236 110248 109225 108155 107032
1936.6630 105843 104587 103315 102121 101055 99972 98470 96027 92337 87657
1941.4841 82882 79221 77600 78152 80123 82295 83626 83738 82954 81931 81195
1946.7874 80873 80753 80531 80039 79303 78451 77585 76732 75870 74981 74072
1952.0907 73154 72215 71222 70149 69003 67830 66682 65586 64527 63464 62353
1957.3939 61172 59924 58637 57359 56151 55073 54164 53421 52804 52245 51695
1962.6973 51132 50556 49941 49215 48270 47041 45582 44093 42860 42125 41964
1968.0005 42251 42723 43110 43245 43096 42730 42240 41692 41116 40525 39938
1973.3038 39377 38862 38394 37959 37538 37126 36748 36469 36385 36602 37194
1978.6071 38167 39441 40871 42285 43546 44585 45404 46056 46611 47127 47644
1983.9104 48176 48716 49224 49633 49870 49898 49769 49627 49654 49950 50439
1989.2136 50856 50876 50309 49255 48099 47337 47321 48084 49343 50669 51711
1994.5170 52331 52596 52665 52657 52597 52445 52160 51756 51298 50867 50515
1999.8202 50240 49993 49704 49312 48788 48140 47394 46586 45735 44852 43943
2005.1235 43028 42150 41366 40727 40254 39935 39726 39582 39474 39400 39367
2010.4268 39372 39390 39385 39335 39248 39152 39073 38996 38871 38634 38261
2015.7301 37791 37322 36966 36799 36838 37040 37321 37590 37761 37777 37621
2021.0333 37332 36994 36707 36545 36521 36581 36633 36597 36445 36214 35980
2026.3367 35823 35791 35880 36050 36244 36411 36526 36583 36594 36581 36569
2031.6399 36582 36636 36737 36886 37084 37340 37669 38085 38587 39164 39797
2036.9432 40474 41181 41896 42574 43161 43621 43962 44252 44589 45056 45686
2042.2465 46453 47297 48156 48992 49786 50526 51199 51802 52349 52874 53424
2047.5498 54047 54800 55762 57037 58724 60854 63324 65888 68224 70062 71300
2052.8530 72044 72543 73054 73731 74579 75505 76404 77227 77987 78720 79436
2058.1563 80106 80687 81157 81547 81930 82379 82924 83525 84079 84471 84640
2063.4597 84621 84554 84633 85017 85766 86812 88002 89166 90186 91026 91719
2068.7629 92339 92959 93625 94352 95116 95870 96566 97179 97732 98287 98925
2074.0662 99706 100642 101693 102784 103841 104817 105712 106557 107395 108252
2078.8875 109127 109996 110835 111639 112424 113219 114033 114852 115645
2083.2263 116385 117067 117706 118324 118924 119490 119993 120400 120684
2087.5654 120824 120817 120694 120529 120428 120477 120691 120987 121207
2091.9045 121188 120846 120204 119382 118525 117750 117117 116646 116345
2096.2437 116238 116349 116677 117173 117738 118259 118652 118896 119034
2100.5825 119147 119309 119555 119879 120250 120635 121021 121403 121775
2104.9216 122126 122447 122745 123052 123409 123840 124330 124824 125258
2109.2607 125595 125850 126074 126325 126627 126958 127267 127514 127704
2113.5999 127882 128112 128426 128795 129139 129356 129378 129196 128861
2117.9387 128451 128026 127603 127152 126620 125964 125179 124294 123366
2122.2778 122447 121563 120704 119826 118871 117790 116563 115209 113769
2126.6169 112291 110795 109266 107664 105946 104097 102142 100128 98097 96052
2131.4380 93958 91758 89421 86968 84486 82100 79930 78050 76471 75144 73996
2136.7415 72951 71959 70994 70045 69109 68178 67243 66297 65333 64349 63340
2142.0447 62303 61238 60152 59054 57955 56857 55766 54691 53653 52679 51787
2147.3479 50967 50185 49397 48576 47723 46861 46016 45195 44379 43537 42648
2152.6511 41708 40732 39734 38720 37678 36584 35410 34134 32760 31336 29968
2157.9546 28794 27956 27541 27555 27929 28554 29327 30174 31054 31940 32810
2163.2578 33644 34440 35213 35990 36799 37651 38537 39432 40299 41104 41828
2168.5610 42474 43069 43638 44184 44671 45037 45234 45260 45166 45030 44910
2173.8643 44820 44738 44644 44559 44548 44691 45033 45550 46149 46699 47086
2179.1677 47251 47206 47026 46817 46686 46704 46901 47258 47732 48268 48821
2184.4709 49360 49873 50362 50835 51300 51758 52207 52649 53093 53560 54072
2189.7742 54638 55243 55852 56422 56925 57357 57747 58130 58541 58989 59460
2195.0774 59924 60349 60726 61072 61426 61833 62319 62876 63468 64047 64581
2200.3809 65064 65505 65916 66296 66624 66886 67086 67259 67455 67720 68069
2205.6841 68483 68926 69361 69779 70194 70627 71087 71555 71989 72353 72639
2210.9873 72884 73148 73490 73922 74409 74885 75296 75635 75944 76286 76700
2216.2905 77177 77664 78103 78466 78778 79097 79481 79953 80491 81045 81571
2221.5940 82049 82495 82941 83420 83943 84502 85079 85657 86229 86797 87365
2226.8972 87931 88488 89025 89543 90052 90571 91121 91714 92350 93021 93715
2232.2004 94421 95127 95821 96487 97116 97711 98295 98903 99570 100306 101095
2237.5037 101895 102660 103366 104017 104643 105280 105948 106639 107327
2241.8428 107988 108618 109240 109891 110600 111371 112177 112979 113748
2246.1819 114476 115176 115864 116541 117192 117809 118401 119005 119661
2250.5210 120381 121127 121821 122379 122759 122984 123140 123334 123657
2254.8599 124155 124828 125650 126592 127633 128755 129940 131155 132359
2259.1990 133509 134572 135538 136413 137221 137991 138749 139515 140304
2263.5381 141117 141949 142792 143639 144492 145367 146292 147302 148424
2267.8772 149668 151022 152449 153899 155328 156714 158063 159405 160781
2272.2161 162219 163729 165299 166915 168571 170282 172070 173954 175937
2276.5552 178009 180159 182387 184699 187100 189577 192105 194657 197224
2280.8943 199825 202485 205219 208011 210819 213590 216286 218892 221408
2285.2334 223841 226192 228463 230657 232793 234902 237021 239175 241361
2289.5723 243545 245667 247660 249476 251098 252547 253867 255104 256286
2293.9114 257410 258447 259365 260159 260863 261543 262251 262986 263675
2298.2505 264209 264504 264562 264470 264352 264294 264305 264328 264281
2302.5896 264099 263733 263130 262216 260920 259220 257184 254950 252673
2306.9285 250448 248274 246085 243807 241420 238971 236551 234242 232100
2311.2676 230160 228465 227078 226063 225429 225082 224811 224328 223349
2315.6067 221678 219251 216143 212515 208555 204430 200273 196195 192316
2319.9458 188774 185701 183198 181322 180112 179626 179955 181161 183155
2324.2847 185586 187845 189220 189152 187458 184378 180433 176178 172006
2328.6238 168106 164537 161337 158568 156292 154543 153340 152707 152636
2332.9629 152987 153394 153312 152255 150091 147202 144337 142226 141178
2337.3020 140937 140866 140341 139099 137335 135533 134175 133498 133440
2341.6409 133761 134262 134944 136024 137826 140673 144908 151074 160046
2345.9800 172844 189979 210613 232057 250168 260684 260926 250941 233432
2350.3191 212508 191981 174125 159436 147245 136618 126959 118109 110132
2354.6582 103071 96878 91470 86797 82840 79574 76938 74860 73286 72186 71528
2359.9614 71248 71254 71460 71814 72315 72995 73900 75079 76571 78405 80594
2365.2646 83129 85984 89136 92573 96305 100359 104774 109582 114806 120451
2370.0859 126510 132967 139807 147021 154607 162573 170922 179651 188746
2374.4248 198176 207911 217921 228189 238705 249461 260440 271610 282924
2378.7639 294320 305717 317012 328088 338822 349099 358820 367903 376276
2383.1030 383873 390633 396510 401479 405547 408748 411147 412825 413876
2387.4421 414391 414450 414125 413482 412581 411480 410227 408856 407391
2391.7810 405853 404268 402665 401069 399484 397897 396286 394634 392945
2396.1201 391243 389564 387939 386382 384880 383404 381913 380371 378764
2400.4592 377098 375405 373723 372083 370496 368942 367391 365813 364200
2404.7983 362570 360961 359412 357956 356616 355414 354369 353496 352785
2409.1372 352197 351660 351092 350428 349639 348739 347774 346795 345844
2413.4763 344938 344071 343225 342380 341526 340667 339814 338978 338160
2417.8154 337353 336553 335768 335012 334297 333613 332927 332197 331400
2422.1545 330551 329702 328914 328223 327619 327052 326460 325802 325072
2426.4934 324296 323516 322771 322085 321475 320945 320495 320110 319761
2430.8325 319402 318985 318481 317897 317272 316664 316122 315670 315304
2435.1716 315006 314759 314549 314362 314170 313937 313630 313239 312784
2439.5107 312310 311866 311487 311191 310977 310833 310742 310681 310629
2443.8496 310572 310505 310433 310367 310322 310312 310352 310455 310626
2448.1887 310856 311118 311372 311581 311721 311794 311822 311844 311899
2452.5278 312014 312196 312430 312682 312921 313125 313300 313470 313669
2456.8669 313918 314213 314520 314788 314963 315011 314935 314769 314572
2461.2058 314400 314279 314194 314098 313945 313713 313420 313109 312819
2465.5449 312563 312326 312080 311806 311510 311215 310941 310694 310461
2469.8840 310218 309940 309613 309236 308825 308416 308054 307776 307591
2474.2231 307469 307351 307175 306903 306533 306098 305642 305206 304821
2478.5620 304504 304263 304091 303962 303831 303651 303393 303059 302682
2482.9011 302309 301976 301692 301443 301209 300980 300767 300585 300446
2487.2402 300338 300230 300085 299879 299609 299290 298948 298607 298290
2491.5793 298021 297826 297723 297710 297757 297815 297834 297790 297691
2495.9182 297571 297461 297371 297281 297159 296981 296754 296509 296292
2500.2573 296135 296039 295977 295909 295804 295658 295502 295378 295323
2504.5964 295341 295393 295419 295359 295189 294927 294625 294334 294085
2508.9355 293878 293698 293534 293391 293284 293225 293206 293200 293172
2513.2744 293096 292966 292793 292598 292406 292238 292102 291998 291915
2517.6135 291839 291766 291696 291641 291610 291600 291598 291582 291534
2521.9526 291450 291338 291219 291119 291058 291051 291093 291162 291222
2526.2917 291243 291209 291131 291037 290952 290886 290827 290757 290672
2530.6306 290592 290553 290587 290705 290883 291080 291255 291392 291500
2534.9697 291602 291717 291846 291968 292054 292080 292042 291961 291877
2539.3088 291832 291858 291965 292143 292365 292600 292823 293016 293177
2543.6479 293312 293437 293572 293732 293929 294161 294419 294688 294953
2547.9868 295206 295446 295678 295913 296165 296447 296762 297099 297431
2552.3259 297723 297946 298091 298182 298262 298387 298595 298899 299281
2556.6650 299705 300135 300550 300948 301339 301738 302152 302574 302988
2561.0042 303374 303719 304021 304295 304572 304888 305274 305741 306275
2565.3430 306841 307401 307935 308444 308948 309467 310009 310568 311135
2569.6821 311707 312291 312896 313522 314156 314783 315395 315996 316599
2574.0212 317218 317858 318516 319185 319858 320534 321214 321905 322611
2578.3604 323333 324066 324801 325527 326245 326970 327725 328536 329412
2582.6995 330342 331301 332259 333195 334104 334997 335896 336822 337791
2587.0383 338799 339824 340833 341801 342725 343634 344572 345569 346628
2591.3774 347720 348811 349886 350959 352062 353217 354414 355619 356807
2595.7166 357978 359169 360421 361748 363118 364471 365762 366996 368228
2600.0557 369531 370946 372454 373989 375476 376880 378223 379564 380966
2604.3945 382461 384042 385677 387329 388981 390638 392318 394039 395808
2608.7336 397615 399430 401213 402932 404577 406172 407771 409439 411232
2613.0728 413173 415248 417414 419620 421824 423994 426120 428200 430249
2617.4119 432287 434339 436424 438548 440704 442878 445061 447251 449458
2621.7507 451691 453958 456270 458643 461097 463641 466264 468929 471592
2626.0898 474225 476837 479466 482150 484901 487697 490490 493238 495925
2630.4290 498564 501189 503840 506553 509356 512262 515261 518319 521391
2634.7681 524440 527459 530477 533541 536687 539921 543218 546540 549860
2639.1069 553167 556463 559751 563024 566276 569512 572746 575997 579275
2643.4460 582573 585882 589198 592539 595931 599393 602923 606494 610071
2647.7852 613630 617161 620667 624147 627597 631016 634417 637822 641253
2652.1243 644711 648176 651610 654981 658271 661482 664623 667703 670726
2656.4631 673698 676628 679521 682373 685161 687849 690402 692792 695007
2660.8022 697048 698919 700623 702153 703494 704626 705531 706202 706655
2665.1414 706923 707045 707058 706982 706829 706612 706352 706077 705809
2669.4805 705556 705311 705062 704806 704551 704301 704040 703733 703336
2673.8193 702829 702232 701604 701016 700506 700067 699655 699220 698747
2678.1584 698266 697832 697487 697230 697007 696733 696336 695783 695094
2682.4976 694325 693538 692781 692069 691396 690747 690110 689487 688888
2686.8367 688320 687782 687266 686757 686250 685742 685237 684736 684234
2691.1755 683729 683226 682743 682298 681894 681515 681123 680681 680173
2695.5146 679618 679057 678534 678071 677664 677287 676910 676515 676092
2699.8538 675637 675148 674625 674077 673520 672972 672439 671911 671367
2704.1929 670794 670191 669576 668971 668395 667855 667355 666903 666508
2708.5317 666171 665875 665585 665258 664859 664379 663833 663252 662673
2712.8708 662125 661623 661165 660742 660339 659945 659559 659183 658809
2717.2100 658410 657944 657373 656692 655950 655234 654642 654227 653964
2721.5491 653759 653487 653060 652478 651832 651266 650897 650756 650761
2725.8879 650754 650569 650107 649372 648457 647496 646605 645843 645207
2730.2271 644658 644147 643642 643137 642638 642154 641685 641227 640783
2734.5662 640372 640026 639770 639602 639478 639319 639048 638622 638053
2738.9053 637400 636729 636080 635447 634800 634115 633404 632705 632062
2743.2441 631488 630970 630485 630037 629658 629382 629208 629080 628911
2747.5833 628633 628239 627775 627306 626869 626454 626020 625532 624980
2751.9224 624375 623733 623062 622371 621683 621034 620456 619958 619515
2756.2615 619082 618628 618149 617670 617219 616807 616413 616000 615541
2760.6003 615032 614496 613972 613484 613038 612614 612188 611747 611297
2764.9395 610857 610440 610038 609628 609178 608669 608104 607502 606891
2769.2786 606296 605724 605173 604631 604090 603562 603088 602723 602507
2773.6177 602433 602425 602360 602123 601652 600976 600185 599391 598678
2777.9565 598079 597586 597171 596801 596441 596054 595605 595075 594473
2782.2957 593841 593234 592692 592219 591775 591304 590773 590202 589665
2786.6348 589255 589029 588961 588949 588866 588628 588228 587726 587192
2790.9739 586651 586071 585403 584629 583790 582964 582215 581560 580970
2795.3127 580415 579903 579491 579243 579178 579235 579290 579209 578906
2799.6519 578375 577680 576915 576165 575483 574879 574340 573836 573338
2803.9910 572822 572276 571698 571094 570475 569858 569272 568756 568361
2808.3301 568120 568031 568038 568043 567939 567653 567174 566547 565849
2812.6689 565154 564504 563914 563381 562891 562427 561968 561489 560970
2817.0081 560410 559830 559261 558731 558245 557784 557327 556870 556432
2821.3472 556049 555741 555495 555260 554973 554587 554093 553521 552921
2825.6863 552338 551794 551280 550768 550220 549618 548974 548330 547744
2830.0251 547252 546850 546488 546102 545646 545118 544545 543954 543344
2834.3643 542689 541967 541195 540446 539823 539406 539212 539177 539171
2838.7034 539045 538672 537985 536995 535780 534464 533169 531975 530892
2843.0425 529872 528841 527749 526601 525460 524412 523523 522805 522215
2847.3813 521675 521114 520491 519812 519118 518471 517925 517513 517227
2851.7205 517020 516816 516541 516158 515684 515188 514750 514419 514180
2856.0596 513970 513726 513443 513181 513037 513072 513260 513491 513624
2860.3987 513565 513309 512925 512498 512081 511678 511276 510878 510522
2864.7375 510249 510067 509929 509749 509444 508976 508364 507662 506926
2869.0767 506197 505506 504887 504390 504073 503971 504072 504305 504554
2873.4158 504697 504638 504340 503823 503151 502401 501637 500903 500216
2877.7549 499581 498996 498456 497953 497470 496987 496487 495970 495455
2882.0938 494977 494570 494248 494001 493793 493578 493314 492974 492548
2886.4329 492044 491486 490904 490330 489784 489263 488752 488228 487676
2890.7720 487092 486469 485800 485081 484331 483607 482996 482574 482358
2895.1111 482282 482215 482017 481596 480938 480106 479194 478294 477460
2899.4500 476712 476036 475410 474821 474276 473807 473451 473214 473059
2903.7891 472902 472646 472223 471615 470849 469976 469048 468107 467199
2908.1282 466371 465655 465046 464490 463904 463219 462420 461552 460680
2912.4673 459848 459044 458215 457303 456295 455236 454213 453316 452598
2916.8062 452055 451626 451217 450737 450127 449380 448547 447712 446964
2921.1453 446359 445910 445592 445356 445155 444951 444721 444451 444131
2925.4844 443763 443368 443000 442736 442652 442791 443132 443584 444008
2929.8235 444269 444277 444017 443545 442959 442368 441860 441488 441264
2934.1624 441167 441148 441158 441156 441124 441066 440997 440931 440868
2938.5015 440788 440656 440436 440112 439713 439320 439036 438940 439039
2942.8406 439248 439422 439425 439194 438763 438227 437681 437166 436651
2947.1797 436063 435331 434427 433389 432314 431334 430576 430118 429948
2951.5186 429958 429985 429879 429569 429081 428513 427959 427468 427031
2955.8577 426613 426202 425819 425495 425233 424992 424707 424338 423908
2960.1968 423502 423223 423127 423192 423320 423390 423312 423066 422705
2964.5359 422317 421987 421760 421635 421579 421557 421551 421568 421624
2968.8748 421717 421813 421845 421733 421431 420950 420376 419843 419487
2973.2139 419388 419529 419794 420004 419986 419648 419018 418238 417490
2977.5530 416921 416579 416413 416323 416223 416080 415905 415708 415474
2981.8921 415160 414732 414193 413591 412981 412381 411755 411041 410200
2986.2310 409271 408362 407605 407086 406795 406647 406542 406433 406351
2990.5701 406363 406504 406723 406887 406854 406556 406052 405512 405138
2994.9092 405079 405362 405890 406482 406938 407097 406885 406317 405484
2999.2483 404522 403563 402692 401925 401210 400466 399643 398757 397903
3003.5872 397213 396799 396707 396894 397244 397595 397774 397641 397138
3007.9263 396322 395352 394417 393630 392970 392322 391605 390882 390364
3012.2654 390281 390702 391447 392170 392566 392550 392296 392095 392163
3016.6045 392528 393059 393588 394021 394345 394564 394630 394447 393958
3020.9434 393222 392433 391825 391545 391568 391719 391785 391641 391303
3025.2825 390899 390579 390430 390449 390536 390515 390151 389214 387584
3029.6216 385380 383010 381058 380046 380170 381202 382620 383898 384763
3033.9607 385272 385671 386164 386767 387321 387630 387601 387296 386870
3038.2996 386480 386211 386079 386056 386109 386211 386330 386426 386451
3042.6387 386379 386219 386032 385897 385853 385843 385693 385171 384108
3046.9778 382531 380713 379108 378164 378122 378888 380067 381151 381758
3051.3169 381795 381445 380998 380619 380229 379571 378430 376856 375221
3055.6558 374055 373759 374371 375536 376694 377366 377370 376864 376204
3059.9949 375723 375533 375475 375209 374423 373023 371219 369432 368077
3064.3340 367358 367207 367396 367743 368233 368978 370056 371357 372591
3068.6731 373435 373725 373536 373107 372675 372337 372047 371698 371225
3073.0120 370648 370034 369444 368899 368382 367860 367302 366680 365979
3077.3511 365220 364466 363815 363355 363106 363015 362982 362940 362901
3081.6902 362958 363214 363699 364321 364893 365217 365171 364763 364108
3086.0293 363364 362670 362110 361721 361520 361515 361693 361994 362297
3090.3682 362458 362364 361982 361354 360537 359538 358306 356800 355100
3094.7073 353463 352257 351790 352138 353066 354131 354875 355021 354554
3099.0464 353668 352641 351716 351046 350696 350665 350918 351389 351984
3103.3855 352580 353034 353213 353039 352541 351876 351284 350995 351115
3107.7244 351579 352177 352653 352808 352564 351964 351147 350288 349541
3112.0635 348965 348482 347900 347031 345847 344556 343521 343036 343115
3116.4026 343454 343636 343428 342970 342675 342902 343632 344405 344584
3120.7417 343781 342143 340303 339017 338729 339343 340323 341035 341104
3125.0806 340571 339804 339246 339189 339673 340558 341647 342779 343823
3129.4197 344611 344897 344420 343068 341022 338775 336966 336091 336271
3133.7588 337209 338355 339203 339505 339330 338942 338616 338510 338641
3138.0979 338940 339309 339648 339864 339879 339656 339239 338739 338299
3142.4368 338017 337907 337899 337890 337800 337607 337335 337024 336693
3146.7759 336336 335930 335459 334933 334386 333876 333469 333228 333197
3151.1150 333381 333737 334171 334559 334791 334804 334600 334236 333794
3155.4541 333343 332917 332519 332137 331763 331410 331099 330855 330683
3159.7930 330565 330466 330350 330200 330025 329856 329725 329642 329592
3164.1321 329536 329438 329280 329066 328808 328517 328195 327844 327481
3168.4712 327138 326851 326646 326523 326463 326425 326360 326220 325978
3172.8103 325655 325327 325090 324982 324912 324657 323968 322736 321131
3177.1492 319581 318591 318488 319247 320511 321785 322694 323120 323169
3181.4883 323014 322736 322290 321596 320665 319667 318866 318490 318603
3185.8274 319079 319688 320215 320560 320737 320818 320851 320829 320716
3190.1665 320503 320239 320015 319902 319906 319962 319970 319843 319523
3194.5054 318970 318151 317057 315763 314460 313426 312923 313063 313737
3198.8445 314670 315549 316171 316511 316674 316792 316930 317063 317121
3203.1836 317056 316888 316701 316600 316653 316850 317077 317138 316816
3207.5227 315981 314685 313201 311951 311329 311495 312259 313133 313561
3211.8616 313191 312065 310592 309337 308742 308937 309738 310778 311694
3216.2007 312239 312318 311951 311250 310406 309663 309260 309333 309857
3220.5398 310655 311488 312172 312649 312971 313221 313430 313543 313454
3224.8789 313086 312454 311675 310919 310323 309929 309679 309476 309257
3229.2178 309028 308843 308748 308749 308830 309014 309375 309990 310834
3233.5569 311724 312370 312524 312144 311430 310724 310311 310272 310466
3237.8960 310653 310646 310415 310082 309832 309799 309985 310230 310250
3242.2351 309745 308559 306820 304966 303618 303315 304251 306178 308518
3246.5740 310642 312131 312891 313078 312944 312695 312447 312233 312007
3250.9131 311642 310957 309812 308255 306592 305305 304817 305252 306353
3255.2522 307630 308634 309180 309368 309424 309513 309640 309722 309709
3259.5913 309664 309720 309975 310406 310875 311212 311310 311178 310915
3263.9302 310649 310471 310409 310432 310483 310512 310491 310416 310308
3268.2693 310212 310204 310359 310688 311066 311229 310882 309878 308371
3272.6084 306790 305633 305189 305383 305865 306280 306508 306710 307144
3276.9475 307915 308868 309696 310175 310324 310367 310539 310902 311316
3281.2864 311571 311566 311394 311283 311442 311935 312652 313370 313855
3285.6255 313942 313590 312883 312008 311187 310587 310249 310073 309888
3289.9646 309562 309096 308624 308340 308395 308828 309568 310479 311413
3294.3037 312236 312841 313161 313202 313047 312844 312740 312819 313068
3298.6426 313398 313690 313847 313820 313609 313257 312837 312442 312166
3302.9817 312088 312243 312613 313109 313575 313807 313609 312879 311692
3307.3208 310316 309138 308514 308606 309301 310256 311052 311380 311162
3311.6599 310568 309924 309558 309663 310234 311090 311980 312696 313151
3315.9988 313384 313499 313589 313688 313773 313802 313753 313636 313474
3320.3379 313267 312991 312612 312130 311604 311146 310872 310851 311062
3324.6770 311412 311783 312094 312339 312568 312834 313144 313448 313679
3329.0161 313805 313854 313892 313956 314011 313956 313687 313163 312430
3333.3550 311578 310670 309720 308734 307796 307113 306954 307511 308754
3337.6941 310392 311977 313098 313554 313413 312940 312452 312185 312227
3342.0332 312523 312929 313276 313436 313357 313074 312675 312250 311846
3346.3723 311462 311080 310712 310424 310308 310431 310786 311290 311822
3350.7112 312270 312572 312702 312648 312381 311866 311099 310151 309181
3355.0503 308391 307943 307888 308139 308529 308887 309106 309153 309040
3359.3894 308789 308432 308031 307675 307438 307308 307153 306779 306055
3363.7285 305026 303926 303073 302703 302860 303409 304158 304979 305854
3368.0674 306820 307880 308942 309853 310477 310765 310755 310533 310166
3372.4065 309688 309125 308530 308002 307650 307531 307614 307785 307908
3376.7456 307900 307772 307619 307556 307653 307900 308212 308473 308573
3381.0847 308428 307980 307211 306150 304904 303658 302646 302087 302103
3385.4236 302659 303559 304505 305213 305530 305492 305273 305039 304802
3389.7627 304366 303439 301860 299813 297847 296675 296813 298270 300468
3394.1018 302476 303423 302905 301159 298939 297146 296430 296933 298301
3398.4409 299924 301253 302017 302266 302225 302112 302018 301917 301757
3402.7798 301548 301370 301308 301374 301489 301531 301418 301161 300861
3407.1189 300646 300595 300702 300883 301020 301026 300881 300633 300374
3411.4580 300195 300146 300229 300398 300582 300701 300690 300522 300218
3415.7971 299826 299358 298715 297674 295974 293487 290386 287183 284582
3420.1360 283203 283324 284777 287061 289572 291839 293633 294931 295801
3424.4751 296300 296442 296243 295787 295239 294801 294609 294660 294804
3428.8142 294830 294576 294023 293292 292581 292068 291851 291927 292214
3433.1533 292585 292907 293081 293080 292948 292771 292617 292511 292443
3437.4922 292411 292431 292485 292443 292035 290949 289028 286461 283821
3441.8313 281891 281318 282239 284082 285675 285673 283189 278319 272294
3446.1704 267086 264587 265764 270229 276473 282622 287272 289954 291035
3450.5095 291249 291199 291139 291048 290835 290486 290062 289628 289205
3454.8484 288783 288358 287954 287600 287320 287122 287005 286937 286819
3459.1875 286467 285667 284295 282454 280519 279041 278517 279140 280659
3463.5266 282439 283729 283995 283179 281717 280326 279653 279991 281182
3467.8657 282752 284174 285106 285498 285536 285479 285487 285523 285369
3472.2046 284763 283564 281893 280136 278813 278351 278884 280174 281716
3476.5437 282956 283514 283280 282341 280811 278691 275905 272497 268840
3480.8828 265683 263906 264101 266234 269613 273210 276117 277854 278378
3485.2219 277870 276546 274654 272596 270979 270439 271317 273405 276012
3489.5608 278315 279780 280369 280427 280356 280332 280222 279705 278488
3493.8999 276489 273924 271289 269237 268359 268929 270738 273138 275294
3498.2390 276528 276518 275248 272778 269076 264089 258034 251666 246245
3502.5781 243121 243155 246339 251834 258384 264764 270022 273432 274406
3506.9170 272596 268201 262228 256379 252472 251661 253930 258182 262869
3511.2561 266770 269437 271140 272439 273733 275069 276228 276954 277109
3515.5952 276682 275718 274275 272480 270617 269122 268407 268545 269019
3519.9343 268764 266597 261882 255048 247609 241580 238553 238936 241772
3524.2732 245241 247528 247596 245504 242188 238943 236876 236592 238139
3528.6123 241158 245097 249406 253659 257615 261209 264475 267404 269786
3532.9514 271139 270843 268484 264251 259130 254670 252373 252991 256168
3537.2905 260632 264845 267707 268926 268888 268191 267178 265737 263414
3541.6294 259721 254434 247745 240239 232724 226012 220731 217245 215713
3545.9685 216218 218865 223716 230558 238623 246496 252368 254632 252573
3550.3076 246797 239147 232089 227845 227652 231438 237987 245453 252029
3554.6467 256510 258607 258868 258242 257456 256591 255123 252445 248510
3558.9856 244082 240360 238212 237604 237651 237226 235611 232648 228347
3563.3247 222363 213919 202345 187858 172013 157459 147132 143326 147027
3567.6638 157698 173459 191577 209184 224026 234985 242100 246110 247842
3572.0029 247853 246505 244260 241806 239844 238725 238301 238158 238000
3576.3420 237825 237731 237603 237068 235837 234137 232743 232466 233465
3580.6809 234992 235862 235302 233459 231083 228588 225290 219534 209748
3585.0200 195706 179097 162988 150594 144151 144506 151345 163566 179381
3589.3591 196232 211005 220814 224095 221273 214468 206335 198846 192785
3593.6982 188166 185020 183780 184957 188477 193346 197982 200974 201687
3598.0371 200350 197731 194755 192312 191190 191963 194819 199474 205308
3602.3762 211573 217472 222030 224027 222279 216246 206521 194704 182699
3606.7153 171970 163377 157611 155591 158155 165063 174200 181922 184702
3611.0544 181081 172574 162868 155867 153898 157050 163700 171518 178217
3615.3933 181899 181246 175827 166405 154927 144039 136300 133494 136299
3619.7324 144293 156154 169976 183669 195426 204099 209318 211324 210661
3624.0715 207897 203414 197197 188667 176779 160612 140390 118380 98929 87250
3628.8926 87352 100107 122513 148620 171721 186820 192317 190250 185106 181753
3633.7139 183391 190387 200452 210016 216059 217480 215363 212139 210205
3638.0530 210779 213509 216891 219154 219115 216678 212828 209191 207322
3642.3918 207943 210401 212601 211584 204647 190613 170620 147932 126695
3646.7310 110192 99512 93421 89546 86156 83445 83525 89179 102173 122134
3651.5522 146481 171224 192040 205223 208455 201538 186925 169583 155707
3655.8911 150505 156006 170191 188067 204155 214962 220071 221436 221654
3660.2302 222435 224102 226069 227629 228427 228493 228050 227376 226711
3664.5693 226057 224895 222056 216015 205578 190553 171984 151847 132528
3668.9084 116497 106201 103837 110605 125567 144869 162197 170738 165948
3673.2473 147770 121088 94081 75192 70031 79484 99722 124019 145567 160099
3678.0686 167202 169786 172099 177381 186420 197600 208148 215648 219004
3682.4077 218588 215810 212463 209971 208613 207021 202456 192137 175133
3686.7466 153604 132313 116386 108654 108364 112183 116752 120935 126182
3691.0857 134898 148169 164569 180809 193596 201311 204453 204833 204313
3695.4248 203998 204218 204978 206312 208205 210177 210990 208871 202341
3699.7639 191291 177653 165117 157782 158302 166503 179319 192229 201452
3704.1028 205629 206005 205030 204330 203446 200215 192501 180018 164878
3708.4419 150408 139077 131095 124782 118451 112366 109167 112304 123552
3712.7810 141458 161882 180257 193916 202850 208568 212189 213408 211127
3717.1201 205072 196889 189591 185654 185190 185683 183648 177103 167130
3721.4590 157387 151857 152357 157404 163161 165757 163503 157688 151650
3725.7981 148888 151403 159072 170058 181652 190974 195403 193030 183345
3730.1372 167895 150231 134709 124482 119845 118130 115445 109225 99922 90710
3734.9583 85499 86714 94320 106470 120886 135772 149761 161465 169535 173412
3739.7795 173991 173213 172476 171008 165740 153263 132780 107960 86152 75108
3744.6006 79067 96451 120431 141964 153630 152459 140584 123692 108138 98116
3749.4219 94201 93951 94183 93562 93868 98995 112223 133483 158534 180760
3754.2429 194608 198490 195294 190183 187189 186901 186738 183520 176416
3758.5820 168159 163645 166947 178792 196178 214157 228382 236655 238781
3762.9211 235436 227376 215733 202879 192605 188810 193216 203685 214594
3767.2603 219472 214500 200798 184076 171824 169651 178809 196102 215949
3771.5991 233202 245129 251726 254641 255738 256214 256522 256658 256276
3775.9382 254503 249904 241063 227732 211803 197223 188568 188939 198399
3780.2773 213865 230471 243539 250138 249670 243580 234612 225976 220521
3784.6165 219983 224485 232571 241849 250004 255656 258662 259815 260206
3788.9553 260659 261462 262434 263203 263531 263497 263381 263246 262437
3793.2944 259421 252309 239978 223224 205161 190385 183122 185175 194721
3797.6335 206626 214265 212127 198131 174649 147782 125169 113293 115402
3801.9727 130765 155265 182756 206569 220942 222429 211172 191474 170900
3806.3115 157715 157564 171106 193987 219205 240439 254425 261326 263413
3810.6506 263316 262836 262521 261614 258125 249312 232942 209075 181308
3814.9897 156300 141296 140756 153921 174755 194314 204312 200201 182598
3819.3289 156766 130630 112129 106760 116041 137345 165083 192713 214732
3823.6677 227956 231838 228051 219740 210716 204672 204347 210705 222350
3828.0068 235572 245344 247209 239439 224320 207540 195539 192088 196163
3832.3459 202683 205797 202533 194246 184873 177505 172072 165959 156862
3836.6851 145325 134762 129019 129655 135229 142995 151242 160120 170377
3841.0239 181460 191019 196485 197393 196359 197726 204824 217863 233888
3845.3630 248603 258626 262756 261798 257471 251261 243778 234686 223047
3849.7021 207858 188612 165684 140466 115276 93153 77536 71639 77427 94462
3854.5232 119385 146694 170857 188719 200749 210185 220501 232774 244702
3858.8623 251958 251008 241565 227050 212747 202783 197868 195217 190746
3863.2014 182176 171065 162411 161908 172436 191819 213195 227845 229010
3867.5405 214845 189245 160393 137759 128711 135848 155967 181169 201970
3871.8794 211333 207820 196153 184708 181205 189032 206213 227295 246529
3876.2185 260145 266570 265269 255883 238711 216051 192825 175352 168676
3880.5576 174118 188668 206480 221371 228838 226941 216317 199924 182613
3884.8967 170143 167435 176612 195888 220085 242550 257450 261370 253873
3889.2356 237278 216070 195971 182522 179330 186701 201550 218887 234169
3893.5747 245175 252317 257310 261224 263250 261028 252315 236863 217256
3897.9138 198047 183636 176142 174561 175704 176236 174463 170783 166757
3902.2529 163731 162143 161909 163334 167549 175985 189254 206360 224878
3906.5918 241975 255564 264887 270358 272996 273907 273998 273869 273771
3910.9309 273659 273391 272975 272606 272327 271507 268671 262121 251183
3915.2700 237274 223843 214885 212782 216872 223802 229577 231977 231745
3919.6091 231753 234755 241290 249117 254480 254298 247902 237397 226647
3923.9480 219593 218765 224482 234886 246663 256235 261050 260473 255827
3928.2871 249510 243641 239033 235118 230833 225806 220997 218328 219573
3932.6262 225257 234299 244550 253843 260852 265318 267672 268474 268126
3936.9653 266970 265530 264528 264503 265260 265622 263819 258452 249514
3941.3042 238809 229442 224527 225785 232710 242753 252396 258602 259932
3945.6433 256863 251235 245197 240258 236928 235017 234273 234804 236984
3949.9824 240954 246188 251532 255765 258284 259380 259925 260699 261875
3954.3215 263010 263488 263024 261879 260674 260011 260172 261019 262088
3958.6604 262752 262433 260847 258211 255292 253159 252705 254191 257097
3962.9995 260410 263163 264895 265738 266131 266397 266501 266130 265014
3967.3386 263232 261269 259777 259201 259505 260190 260589 260258 259214
3971.6777 257873 256752 256140 255964 255926 255791 255609 255698 256418
3976.0166 257885 259854 261822 263285 263980 263946 263426 262687 261900
3980.3557 261135 260442 259910 259663 259785 260242 260880 261497 261958
3984.6948 262251 262472 262727 263033 263263 263187 262583 261365 259672
3989.0339 257861 256400 255696 255920 256910 258218 259271 259617 259114
3993.3728 257996 256764 255960 255934 256705 257987 259345 260393 260937
3997.7119 261011 260791 260485 260230 260061 259946
##END= 
