##TITLE= BKG
##JCAMP-DX= 4.24
##DATA TYPE= INFRARED SPECTRUM
##ORIGIN= JASCO
##OWNER= 
##DATE= 22/03/30
##TIME= 18:31:41
##SPECTROMETER/DATA SYSTEM= 
##RESOLUTION= 
##DELTAX=   0.48211674
##XUNITS= 1/CM
##YUNITS= ARBITRARY UNITS
##XFACTOR= 1.00000
##YFACTOR= 1E-005
##FIRSTX=   599.7532
##LASTX=  4000.1226
##NPOINTS=     7054
##FIRSTY=      1.18748
##MAXY=     10.40063
##MINY=      0.27847
##XYDATA= (X++(Y..Y))
599.7532 118748 119138 120200 121723 123307 124543 125197 125303 125109 124933
604.5744 125021 125468 126218 127115 127976 128650 129076 129296 129427 129591
609.3956 129854 130202 130577 130942 131312 131734 132238 132786 133270 133541
614.2167 133451 132891 131839 130415 128917 127796 127515 128349 130220 132692
619.0379 135154 137099 138343 139047 139557 140147 140860 141506 141820 141655
623.8591 141094 140428 140023 140151 140874 142027 143296 144371 145068 145402
628.6802 145537 145669 145896 146171 146343 146274 145930 145395 144806 144257
633.5014 143765 143308 142891 142596 142540 142793 143303 143888 144322 144449
638.3226 144263 143915 143628 143576 143796 144174 144507 144607 144392 143904
643.1437 143278 142667 142180 141847 141609 141335 140849 139996 138727 137166
647.9649 135614 134454 133992 134319 135269 136495 137627 138414 138801 138898
652.7861 138898 138978 139231 139664 140220 140823 141401 141884 142213 142369
657.6072 142420 142530 142901 143670 144820 146199 147618 148946 150142 151237
662.4284 152331 153653 155538 158128 160815 161758 158062 146928 127446 102002
667.2496 76235 57168 50301 57198 74912 97526 118863 134850 144413 148822
672.0707 150229 150413 150281 150056 149716 149283 148855 148517 148271 148065
676.8919 147857 147650 147483 147396 147404 147498 147649 147834 148047 148316
681.7131 148693 149224 149911 150709 151537 152331 153066 153758 154428 155074
686.5342 155659 156136 156497 156800 157176 157789 158770 160152 161829 163582
691.3554 165158 166384 167243 167885 168548 169430 170590 171926 173241 174373
696.1766 175290 176122 177085 178365 180005 181872 183709 185257 186374 187090
700.9977 187573 188029 188590 189263 189948 190530 190963 191311 191709 192285
705.8189 193089 194071 195115 196101 196955 197670 198292 198893 199540 200271
710.6401 201069 201856 202508 202918 203055 203009 202951 203051 203382 203903
715.4612 204503 205073 205508 205644 205195 203810 201300 197899 194371 191798
720.2824 191105 192585 195731 199474 202721 204834 205811 206097 206219 206497
725.1036 206971 207519 208021 208442 208812 209161 209475 209705 209800 209736
729.9247 209526 209216 208871 208564 208344 208215 208127 207987 207700 207198
734.7459 206460 205507 204381 203126 201767 200297 198682 196869 194811 192497
739.5671 189972 187332 184693 182145 179711 177332 174894 172282 169434 166375
744.3882 163206 160060 157059 154284 151779 149572 147691 146172 145037 144280
749.2094 143857 143701 143763 144052 144651 145686 147234 149248 151530 153804
754.0306 155845 157577 159061 160372 161475 162203 162407 162153 161821 161965
758.8517 162987 164837 166943 168465 168716 167512 165237 162613 160339 158817
763.6729 158102 158035 158443 159259 160518 162282 164554 167265 170314 173621
768.4941 177163 180959 185014 189277 193631 197930 202059 205978 209715 213313
773.3152 216782 220072 223110 225849 228302 230537 232625 234598 236435 238087
778.1364 239517 240720 241727 242577 243314 243971 244580 245167 245732 246250
782.9576 246672 246958 247105 247164 247219 247339 247549 247809 248053 248237
787.7787 248367 248499 248691 248953 249229 249427 249482 249399 249253 249134
792.5999 249089 249087 249059 248955 248798 248676 248676 248816 249020 249159
797.4211 249139 248971 248773 248704 248868 249255 249744 250177 250441 250529
802.2422 250530 250580 250788 251182 251704 252234 252652 252890 252954 252922
807.0634 252897 252966 253163 253477 253876 254340 254868 255469 256125 256776
811.8846 257335 257725 257923 257978 257994 258087 258333 258743 259260 259794
816.7057 260258 260610 260863 261080 261341 261705 262181 262726 263270 263743
821.5269 264112 264391 264632 264907 265283 265806 266479 267257 268052 268761
826.3481 269308 269680 269937 270184 270521 270995 271590 272247 272905 273527
831.1693 274096 274606 275046 275413 275733 276066 276489 277053 277747 278494
835.9904 279187 279738 280122 280376 280580 280808 281105 281477 281898 282333
840.8116 282754 283152 283542 283952 284409 284923 285465 285982 286408 286704
845.6328 286875 286972 287071 287242 287529 287942 288469 289085 289759 290451
850.4539 291115 291716 292249 292751 293296 293957 294771 295715 296719 297702
855.2751 298610 299435 300202 300950 301706 302483 303285 304112 304962 305826
860.0963 306693 307558 308432 309344 310324 311384 312504 313642 314746 315770
864.9174 316687 317493 318205 318870 319555 320333 321260 322350 323574 324876
869.7386 326193 327478 328703 329858 330959 332046 333178 334408 335748 337145
874.5598 338502 339719 340758 341669 342570 343589 344802 346207 347743 349336
879.3809 350928 352486 353980 355373 356633 357766 358836 359949 361209 362651
884.2021 364224 365808 367280 368571 369688 370698 371683 372714 373830 375046
889.0233 376356 377735 379146 380546 381901 383198 384443 385647 386816 387954
893.8444 389066 390163 391253 392332 393382 394381 395332 396274 397278 398409
898.6656 399694 401098 402538 403927 405208 406380 407492 408604 409760 410964
903.4868 412185 413380 414515 415577 416569 417502 418388 419236 420057 420873
908.3079 421713 422609 423586 424649 425780 426934 428064 429139 430169 431207
913.1291 432313 433513 434765 435971 437022 437864 438537 439151 439825 440618
917.9503 441506 442411 443264 444049 444810 445609 446481 447410 448340 449211
922.7714 449985 450656 451243 451778 452303 452863 453501 454240 455066 455930
927.5926 456751 457445 457956 458270 458425 458495 458575 458747 459062 459525
932.4138 460096 460709 461290 461778 462138 462364 462486 462554 462631 462771
937.2349 462997 463290 463597 463848 463992 464026 463996 463982 464052 464219
942.0561 464429 464587 464621 464523 464363 464242 464233 464327 464444 464484
946.8773 464385 464159 463875 463617 463436 463337 463296 463288 463308 463364
951.6984 463457 463554 463592 463502 463252 462879 462484 462189 462086 462189
956.5196 462439 462734 462975 463100 463090 462957 462731 462456 462181 461951
961.3408 461793 461705 461663 461640 461623 461617 461638 461703 461823 462005
966.1619 462252 462566 462943 463375 463857 464383 464946 465536 466135 466726
970.9831 467303 467870 468437 468998 469536 470036 470511 471012 471604 472333
975.8043 473186 474090 474950 475700 476337 476923 477550 478292 479178 480182
980.6254 481248 482317 483350 484338 485300 486263 487247 488257 489287 490337
985.4466 491426 492590 493860 495233 496663 498065 499361 500517 501560 502561
990.2678 503585 504662 505773 506875 507936 508952 509944 510930 511910 512866
995.0889 513784 514661 515515 516365 517216 518050 518844 519576 520251 520891
999.9101 521531 522200 522905 523627 524329 524974 525541 526040 526503 526968
1004.7313 527455 527955 528436 528861 529208 529476 529680 529830 529920
1009.0703 529929 529835 529633 529349 529036 528758 528559 528450 528406
1013.4094 528381 528335 528243 528096 527890 527613 527247 526787 526261
1017.7484 525739 525319 525083 525059 525193 525365 525438 525324 525016
1022.0875 524584 524134 523747 523452 523229 523036 522844 522643 522435
1026.4265 522219 521983 521715 521412 521090 520764 520440 520102 519714
1030.7656 519248 518698 518091 517486 516948 516523 516220 516004 515809
1035.1046 515561 515194 514680 514035 513318 512605 511967 511432 510979
1039.4437 510552 510096 509585 509031 508463 507900 507333 506735 506084
1043.7827 505383 504656 503936 503252 502629 502089 501648 501293 500971
1048.1218 500599 500098 499443 498684 497922 497249 496693 496210 495725
1052.4608 495178 494566 493927 493295 492667 492004 491259 490426 489557
1056.7999 488738 488042 487491 487042 486620 486153 485611 485007 484384
1061.1389 483791 483255 482782 482357 481950 481531 481079 480586 480071
1065.4780 479570 479128 478779 478530 478359 478223 478073 477864 477568
1069.8170 477181 476724 476241 475780 475371 475003 474628 474191 473675
1074.1561 473127 472642 472320 472202 472250 472369 472459 472468 472402
1078.4951 472309 472247 472257 472366 472593 472956 473462 474101 474838
1082.8342 475629 476435 477226 477977 478663 479261 479759 480171 480535
1087.1732 480900 481298 481729 482163 482567 482931 483282 483670 484141
1091.5123 484701 485311 485904 486429 486874 487274 487678 488118 488594
1095.8513 489081 489558 490030 490527 491084 491720 492436 493214 494035
1100.1904 494876 495710 496514 497275 498013 498773 499609 500545 501553
1104.5294 502561 503493 504320 505086 505890 506832 507958 509228 510536
1108.8685 511761 512827 513730 514536 515332 516188 517131 518155 519246
1113.2075 520401 521632 522941 524302 525655 526940 528124 529217 530266
1117.5466 531307 532347 533364 534338 535289 536283 537406 538719 540224
1121.8856 541864 543553 545211 546784 548249 549608 550886 552132 553404
1126.2247 554750 556177 557646 559093 560460 561731 562928 564093 565258
1130.5637 566427 567584 568709 569787 570806 571749 572598 573341 573999
1134.9028 574625 575288 576045 576907 577821 578688 579400 579876 580088
1139.2418 580069 579900 579681 579522 579517 579741 580227 580959 581863
1143.5809 582834 583766 584604 585365 586136 587032 588139 589477 590998
1147.9199 592616 594255 595888 597537 599263 601132 603198 605483 607971
1152.2590 610610 613310 615967 618497 620865 623097 625259 627416 629591
1156.5980 631756 633857 635846 637710 639471 641166 642819 644434 645997
1160.9371 647487 648888 650192 651406 652559 653711 654950 656369 658029
1165.2761 659923 661970 664047 666051 667947 669782 671650 673642 675801
1169.6152 678121 680551 683013 685393 687542 689307 690609 691520 692277
1173.9542 693209 694568 696381 698409 700241 701482 701918 701581 700699
1178.2933 699606 698671 698274 698787 700507 703549 707756 712705 717832
1182.6323 722613 726706 729979 732450 734209 735380 736152 736789 737591
1186.9714 738790 740439 742396 744395 746193 747686 748934 750104 751366
1191.3104 752805 754395 756033 757606 759054 760406 761755 763200 764778
1195.6495 766443 768110 769729 771350 773107 775135 777466 779989 782501
1199.9885 784820 786884 788774 790656 792678 794895 797244 799590 801786
1204.3276 803746 805475 807058 808610 810226 811947 813769 815671 817626
1208.6666 819573 821387 822881 823896 824426 824704 825148 826181 828008
1213.0057 830500 833266 835858 837985 839601 840842 841881 842821 843694
1217.3447 844531 845418 846481 847808 849385 851099 852812 854441 855964
1221.6838 857360 858530 859309 859566 859354 858982 858920 859585 861131
1226.0228 863362 865851 868152 870003 871395 872491 873497 874548 875684
1230.3619 876890 878141 879425 880737 882050 883317 884482 885514 886428
1234.7009 887288 888179 889170 890284 891489 892716 893896 894997 896039
1239.0400 897090 898240 899537 900939 902281 903318 903838 903806 903445
1243.3790 903184 903483 904614 906519 908841 911084 912836 913903 914329
1247.7181 914293 913983 913504 912855 911967 910758 909163 907150 904709
1252.0571 901857 898638 895114 891331 887282 882909 878164 873093 867861
1256.3962 862652 857475 852054 845929 838812 830996 823513 817865 815400
1260.7352 816675 821189 827650 834627 841181 847113 852681 857998 862516
1265.0743 865029 864314 860128 853946 848814 848133 853884 865273 878711
1269.4133 889322 893233 889376 879778 868272 858464 852192 849222 848092
1273.7524 847352 846398 845530 845473 846815 849718 853959 859136 864851
1278.0914 870831 876971 883355 890208 897780 906157 915124 924166 932668
1282.4305 940211 946782 952726 958413 963824 968360 971101 971423 969605
1286.7695 966965 965346 966213 969911 975579 981735 987127 991284 994487
1291.1086 997293 1000059 1002763 1005161 1007009 1008164 1008534 1008056
1294.9656 1006808 1005173 1003854 1003618 1004887 1007469 1010643 1013545
1298.8225 1015604 1016731 1017216 1017440 1017656 1017919 1018149 1018214
1302.6794 1017999 1017452 1016629 1015698 1014829 1014026 1013026 1011404
1306.5364 1008913 1005836 1003076 1001815 1002834 1005855 1009312 1010774
1310.3933 1007931 999731 987126 972983 961079 954566 954624 959982 967581
1314.7323 973975 976698 974876 968973 960093 949516 938753 929831 925218
1319.0714 927075 936139 950997 968383 984466 996432 1003448 1006551 1007670
1323.4104 1008480 1009736 1011306 1012667 1013425 1013557 1013314 1012956
1327.2673 1012547 1011946 1010997 1009763 1008590 1007911 1007907 1008327
1331.1243 1008685 1008721 1008716 1009225 1010291 1010728 1008206 1000381
1334.9812 986383 967512 946400 925075 903399 879327 851197 820626 793766
1339.3203 779563 785554 813616 858269 908732 953560 985233 1002247 1008037
1343.6593 1007960 1006440 1005690 1006047 1006923 1007471 1006780 1004030
1347.5162 998947 992306 985929 981929 981649 985031 990796 997117 1002161
1351.8553 1004276 1002144 995308 984919 973898 965939 963662 967169 974114
1356.1943 981268 986337 988667 988497 985639 978807 965993 945370 916032
1360.5334 878492 835348 792140 757450 741085 750306 785833 840264 900318
1364.8724 951913 985241 997226 990785 972292 949148 928357 915671 914608
1369.2115 925310 943992 963643 975902 973396 951844 911632 858673 803993
1373.5505 761335 742767 753780 790423 840502 888703 923092 939508 941719
1377.8896 937803 935335 938166 946040 956326 966157 973659 978126 979788
1382.2286 979659 979270 979709 979952 975582 959537 925686 873858 813146
1386.5677 760419 733587 742794 784769 844118 901188 941762 962630 969822
1390.9067 971271 969293 958190 928542 875232 803760 730570 676721 658125
1395.2458 677470 722167 769666 797844 795476 767498 732238 711991 722032
1399.5848 763990 826697 893008 947715 981939 992830 981073 949652 904991
1403.9240 858318 824121 814865 834754 876975 926828 969018 994500 1002857
1408.2629 999648 991500 982578 974151 966359 960043 957137 959637 968103
1412.6021 980671 993074 999766 995884 979239 951085 914747 872641 823903
1416.9410 765157 695037 619863 555909 524996 544325 615850 721842 830282
1421.2802 908097 935617 914698 866495 820418 800378 815330 858200 912359
1425.6191 960845 992836 1004676 996915 971320 930858 882117 836693 808324
1429.9583 806279 829459 866225 901083 923777 933850 936926 935688 923404
1434.2972 886505 815703 717758 618348 552231 545922 603710 705716 818727
1438.6364 912507 971828 998540 1004946 1004368 1004762 1007624 1010744 1011797
1442.9753 1010448 1008231 1006660 1004774 997789 978406 941094 887435 828899
1447.3145 783953 769762 792738 843893 902490 946333 962675 953348 931506
1451.6534 912510 904634 904600 899677 874428 818342 730861 622019 509018
1455.9926 410697 342426 313289 325834 377216 460307 564373 676128 782047
1460.3315 871375 937937 979206 993435 977931 931205 858358 775247 706441
1464.6707 675927 695378 757653 840377 917640 972300 1001241 1011174 1009139
1469.0096 994896 960282 895519 798097 678676 560404 471445 433761 453215
1473.3488 516081 594600 659736 694953 703468 704719 722037 768859 841411
1477.6877 921449 986421 1020545 1021002 997200 965039 939864 931242 941036
1482.0269 964630 994011 1020851 1038116 1040063 1022067 981882 922269 852520
1486.3658 786012 733654 697236 668307 634899 592225 549379 526279 542232
1490.7050 603944 701096 811542 911186 981464 1011359 996468 939289 851365
1495.0439 753526 670336 619906 605626 616487 636463 656035 677089 707867
1499.3831 752951 807097 857976 894938 915819 925731 928945 921007 888279
1503.7220 816214 700786 554968 405573 282355 206144 182703 204672 258650
1508.0612 331970 415248 500807 580272 644738 688087 710856 721042 730304
1512.4001 747313 772173 795265 801313 776832 717600 632899 544295 478537
1516.7393 456606 483364 543175 604884 634948 612776 540581 442681 354694
1521.0782 308094 317455 375756 459110 538127 590528 609298 602911 588146
1525.4174 580062 585129 601184 623041 648690 681080 724342 777826 832846
1529.7563 874665 888353 864938 805003 719069 625475 546434 502534 506526
1534.0955 558449 644479 740404 818367 854227 833468 754851 631471 488347
1538.4344 355745 259390 211592 208286 234087 272210 312634 353393 395514
1542.7736 437197 473033 499140 519378 546298 594490 670223 764561 855034
1547.1125 915288 927336 890036 820155 746142 697413 692907 732866 797421
1551.4517 853876 871084 834883 756320 666943 602345 582640 601181 628406
1555.7906 628474 578639 480195 355879 237392 151861 114709 130302 196181
1560.1298 305588 446479 599660 740169 843603 894882 894607 859201 814548
1564.4688 786063 789309 824409 875858 917925 924510 880649 791110 681314
1568.8079 588513 546167 569092 647474 753179 854324 929013 970192 980285
1573.1469 961742 912204 828620 716799 597748 503893 465730 496829 586829
1577.4860 706838 823586 913563 969554 997791 1009813 1015095 1018169 1019947
1581.8250 1020419 1020208 1020375 1021503 1023283 1024933 1025909 1026221
1585.6819 1026199 1026005 1025359 1023626 1020172 1014743 1007727 1000211
1589.5389 993788 990066 989918 992776 996403 997527 993286 982850 968288
1593.8779 953980 944740 943644 950817 963794 979061 993610 1005620 1014171
1598.2170 1018682 1018760 1014491 1006650 996390 984684 972170 959776 949527
1602.5560 944458 947080 957213 970918 981809 984284 976567 961408 943922
1606.8951 928230 915500 904782 895697 890454 893133 906513 928958 954195
1611.2341 974634 985919 988894 986882 979889 960548 916264 837875 729786
1615.5732 614119 524287 490177 523238 610602 721952 824681 897807 936586
1619.9122 946744 934486 900666 843405 766249 684335 622251 603394 637016
1624.2513 711314 797353 862134 883741 860716 811281 763552 742153 757769
1628.5903 804163 863320 915478 948572 962066 963315 959059 947814 918670
1632.9294 858000 760151 635098 507562 407493 357379 363673 416630 497376
1637.2684 586995 672394 746991 808026 853875 883499 897776 900736 898886
1641.6075 898294 900830 901801 890844 856319 791408 698847 591539 488535
1645.9465 408523 364334 360879 396201 463294 550551 641074 713221 744672
1650.2856 719673 636215 509004 366131 240721 161238 144123 190770 288873
1654.6246 417048 551177 670731 763260 825748 862763 882665 893654 900866
1658.9637 904835 901343 883103 843689 782852 710387 645150 608087 612350
1663.3027 656436 724971 796662 853847 887331 894486 874362 825663 749980
1667.6418 656869 564684 494318 459435 460528 487399 527731 574259 624580
1671.9808 674587 712761 722386 691960 626439 549967 496331 492192 543298
1676.3199 631825 725674 793623 818030 799725 754585 704822 669001 654270
1680.6589 653339 647651 616182 546681 444095 331424 241632 204032 231709
1684.9980 316159 431450 545352 631728 678653 689569 678428 662126 653919
1689.3370 660087 680214 709810 743270 775452 801272 814201 805630 766875
1693.6761 693954 592878 481796 387148 334046 334804 381460 446965 495634
1698.0151 498750 448151 361074 273363 223688 236091 309355 418427 526873
1702.3542 603469 634139 623836 589365 549195 516744 499509 501573 525087
1706.6932 568743 625184 681193 722441 740578 737858 725745 717959 722169
1711.0323 735360 745458 738114 704774 647740 579550 516863 471880 445992
1715.3713 429571 408623 374753 332330 297941 291950 327100 401065 497193
1719.7104 592368 666854 710749 724853 717389 699570 682036 672503 674272
1724.0494 685804 701981 716963 727113 731933 732239 727214 713242 686268
1728.3885 646371 600810 562172 541567 540769 548782 546142 515405 452029
1732.7275 369060 292435 249263 255529 309791 395421 488870 568516 619874
1737.0667 636607 619742 577342 524280 479674 460514 473688 511496 554831
1741.4056 583303 586427 568756 545821 533902 540469 560930 582592 592312
1745.7448 583041 556297 520432 486304 462395 451266 448911 447668 441536
1750.0837 430940 423685 431001 460855 512676 576703 638039 682637 701947
1754.4229 694597 665647 624752 583981 555225 547078 561867 594134 631676
1758.7618 659277 664138 641146 595820 543188 502291 488254 505715 547288
1763.1010 598035 643156 673990 688907 689657 677248 651289 613224 569926
1767.4399 533278 514498 516592 530547 538817 524766 482540 421390 361789
1771.7791 325560 325503 359973 414843 471250 514618 540239 552979 562104
1776.1180 574770 591963 608704 617619 613317 595228 567968 539706 519448
1780.4572 513997 525256 548864 575245 593377 595888 582824 561706 543584
1784.7961 537348 545603 564317 585873 603165 612223 612300 604205 588470
1789.1353 564606 531760 490304 443523 398405 364623 351376 363065 396103
1793.4742 439297 478519 503498 512658 512693 513027 518901 527942 532489
1797.8134 525751 507070 482556 461002 448508 445768 449474 456013 464191
1802.1523 475129 490015 507994 525926 539940 547381 547797 542698 534638
1806.4915 526238 519317 514156 509186 501652 489335 472491 454609 441111
1810.8304 436568 442197 455284 470846 484257 493051 496981 496801 493069
1815.1696 485900 475610 463432 451532 442258 437109 436094 437777 439940
1819.5085 440540 438575 434446 429531 425019 420625 414133 402447 383872
1823.8477 360286 337540 323307 323168 337067 358307 375991 379896 365366
1828.1866 335758 301190 274173 264237 274094 299059 329804 356866 374536
1832.5258 382303 383482 382261 381096 379880 377009 371275 363227 355143
1836.8647 349793 348851 351971 357019 361298 362957 361679 358154 352677
1841.2039 343994 329550 307412 278779 249164 226862 219093 228001 249135
1845.5428 273605 292690 302079 303221 301288 301446 305932 313537 321233
1849.8820 326423 328262 327542 325682 323761 322157 320766 319395 317980
1854.2209 316567 315179 313707 311940 309677 306877 303745 300688 298135
1858.5601 296325 295190 294413 293640 292693 291656 290783 290282 290105
1862.8990 289854 288852 286353 281801 274977 265967 254988 242266 228158
1867.2382 213536 200139 190486 187130 191504 203009 218966 235579 249436
1871.5771 258701 263418 264893 264694 263903 262937 261819 260528 259148
1875.9163 257793 256496 255177 253732 252127 250437 248802 247369 246232
1880.2552 245390 244719 243978 242884 241228 238962 236230 233335 230690
1884.5944 228760 227908 228126 228729 228308 225196 218375 208360 197413
1888.9333 188761 185131 187412 194267 202865 210247 214463 214970 212305
1893.2725 207547 201943 196781 193247 192119 193396 196222 199255 201324
1897.6115 201946 201378 200231 199002 197847 196681 195412 194058 192696
1901.9506 191344 189964 188544 187187 186046 185170 184377 183307 181611
1906.2896 179139 175995 172450 168818 165405 162542 160600 159915 160614
1910.6287 162463 164843 166938 168051 167916 166811 165377 164181 163245
1914.9677 161864 158899 153494 145825 137390 130555 127501 129130 134525
1919.3068 141290 146577 148270 145772 140092 133302 127659 124767 125079
1923.6458 127880 131714 135058 136923 137122 136127 134637 133171 131881
1927.9849 130645 129291 127763 126135 124520 122976 121495 120052 118658
1932.3239 117362 116213 115202 114254 113268 112181 110999 109778 108570
1936.6630 107379 106183 104992 103869 102859 101824 100356 97903 94114 89219
1941.4841 84142 80173 78331 78806 80838 83146 84617 84831 84107 83130 82446
1946.7874 82189 82124 81923 81400 80586 79634 78684 77796 76957 76127 75273
1952.0907 74369 73395 72350 71264 70193 69189 68264 67374 66439 65398 64237
1957.3939 62994 61728 60473 59233 57999 56783 55631 54604 53737 53021 52410
1962.6973 51852 51308 50726 50027 49101 47872 46386 44851 43579 42848 42755
1968.0005 43158 43751 44212 44348 44141 43696 43153 42603 42071 41547 41019
1973.3038 40491 39981 39499 39043 38604 38183 37808 37540 37458 37639 38127
1978.6071 38915 39947 41139 42397 43644 44820 45886 46814 47593 48230 48764
1983.9104 49251 49740 50243 50702 51012 51083 50919 50652 50497 50612 50969
1989.2136 51312 51288 50668 49536 48306 47530 47610 48583 50111 51680 52863
1994.5170 53492 53660 53589 53459 53336 53189 52971 52679 52365 52087 51871
1999.8202 51689 51479 51179 50756 50207 49547 48797 47968 47069 46109 45111
2005.1235 44108 43148 42276 41529 40935 40507 40248 40146 40172 40280 40417
2010.4268 40534 40610 40649 40679 40720 40761 40744 40584 40213 39620 38882
2015.7301 38141 37553 37230 37198 37396 37718 38057 38339 38533 38636 38657
2021.0333 38604 38476 38274 38007 37701 37402 37162 37024 37000 37064 37159
2026.3367 37225 37225 37156 37041 36918 36823 36784 36829 36975 37220 37535
2031.6399 37862 38133 38298 38359 38368 38414 38582 38917 39414 40035 40734
2036.9432 41484 42270 43066 43821 44460 44932 45253 45512 45840 46340 47032
2042.2465 47852 48702 49514 50281 51037 51818 52613 53375 54044 54588 55033
2047.5498 55460 56000 56816 58070 59858 62158 64788 67444 69799 71621 72860
2052.8530 73643 74195 74736 75395 76201 77104 78030 78911 79705 80398 81003
2058.1563 81545 82055 82557 83065 83591 84150 84748 85358 85909 86294 86438
2063.4597 86361 86206 86195 86532 87302 88433 89737 91012 92122 93033 93788
2068.7629 94451 95071 95675 96276 96885 97509 98145 98783 99420 100069 100769
2074.0662 101563 102479 103505 104593 105674 106683 107583 108379 109110
2078.4053 109833 110606 111462 112408 113421 114457 115466 116408 117263
2082.7444 118035 118743 119409 120038 120620 121143 121609 122034 122428
2087.0833 122775 123028 123142 123119 123034 123008 123136 123415 123728
2091.4224 123893 123750 123244 122438 121476 120513 119669 119016 118586
2095.7615 118386 118400 118595 118915 119301 119709 120112 120503 120882
2100.1006 121248 121603 121947 122284 122613 122930 123224 123491 123743
2104.4395 124004 124302 124657 125065 125497 125917 126293 126616 126901
2108.7786 127172 127455 127762 128093 128447 128825 129228 129653 130078
2113.1177 130472 130804 131060 131256 131422 131581 131725 131811 131782
2117.4568 131592 131239 130763 130225 129672 129118 128537 127885 127120
2121.7957 126220 125182 124020 122762 121448 120130 118852 117629 116436
2126.1348 115218 113917 112506 110989 109388 107710 105932 104017 101949 99753
2130.9561 97491 95224 92980 90747 88493 86216 83963 81828 79913 78276 76913
2136.2593 75758 74718 73707 72677 71621 70559 69519 68510 67523 66532 65513
2141.5625 64457 63380 62308 61259 60231 59206 58166 57117 56093 55140 54283
2146.8657 53502 52746 51956 51101 50192 49265 48351 47456 46565 45653 44711
2152.1692 43737 42734 41696 40610 39471 38280 37044 35762 34425 33031 31612
2157.4724 30249 29075 28234 27847 27964 28552 29494 30623 31767 32797 33660
2162.7756 34383 35042 35718 36461 37273 38125 38983 39822 40633 41407 42132
2168.0789 42795 43385 43906 44374 44814 45244 45671 46080 46430 46668 46746
2173.3823 46652 46428 46166 45983 45976 46181 46562 47026 47461 47779 47941
2178.6855 47966 47916 47866 47877 47983 48184 48464 48795 49154 49524 49890
2183.9888 50249 50617 51023 51506 52087 52754 53456 54125 54709 55197 55623
2189.2920 56043 56502 57016 57567 58119 58642 59118 59549 59947 60327 60704
2194.5955 61090 61487 61892 62300 62705 63106 63500 63884 64256 64621 64994
2199.8987 65400 65858 66367 66903 67425 67892 68286 68611 68891 69158 69445
2205.2019 69779 70171 70608 71052 71448 71756 71975 72154 72374 72703 73161
2210.5051 73712 74286 74815 75271 75663 76025 76389 76774 77183 77618 78077
2215.8086 78557 79051 79542 80013 80459 80886 81315 81768 82252 82757 83257
2221.1118 83730 84162 84565 84960 85372 85818 86300 86817 87371 87965 88598
2226.4150 89250 89890 90486 91027 91535 92054 92625 93267 93968 94696 95426
2231.7183 96140 96831 97489 98105 98678 99223 99775 100368 101018 101714
2236.5396 102425 103124 103804 104481 105180 105915 106685 107468 108239
2240.8787 108978 109673 110327 110948 111548 112140 112733 113338 113972
2245.2175 114654 115400 116214 117078 117955 118799 119572 120263 120883
2249.5566 121456 122008 122545 123060 123537 123960 124334 124684 125054
2253.8958 125495 126054 126757 127609 128595 129682 130830 131992 133130
2258.2349 134213 135230 136176 137051 137848 138568 139225 139862 140536
2262.5737 141298 142161 143096 144045 144968 145863 146773 147754 148840
2266.9128 150020 151256 152505 153755 155024 156349 157749 159219 160727
2271.2520 162242 163750 165264 166818 168439 170137 171900 173707 175541
2275.5911 177397 179282 181204 183178 185223 187371 189650 192076 194636
2279.9299 197293 200005 202752 205537 208374 211261 214162 217018 219771
2284.2690 222392 224883 227267 229565 231793 233959 236078 238164 240223
2288.6082 242240 244180 246007 247699 249253 250676 251973 253149 254223
2292.9473 255237 256241 257263 258280 259215 259980 260533 260905 261177
2297.2861 261423 261660 261838 261887 261772 261525 261228 260965 260783
2301.6252 260667 260550 260326 259866 259037 257727 255889 253569 250907
2305.9644 248095 245302 242624 240059 237541 234994 232387 229749 227155
2310.3035 224695 222451 220493 218884 217675 216881 216446 216214 215939
2314.6423 215339 214172 212300 209711 206498 202802 198760 194493 190117
2318.9814 185775 181651 177934 174772 172233 170314 169009 168378 168546
2323.3206 169616 171505 173835 175963 177176 176963 175213 172216 168484
2327.6597 164503 160584 156869 153428 150351 147743 145666 144114 143053
2331.9985 142491 142462 142903 143514 143764 143116 141351 138770 136092
2336.3376 134061 133032 132774 132650 132016 130601 128622 126613 125104
2340.6768 124350 124267 124573 125035 125638 126604 128262 130925 134917
2345.0159 140764 149341 161678 178311 198420 219341 236976 247129 247191
2349.3547 237266 220062 199642 179732 162514 148413 136728 126523 117222
2353.6938 108692 101010 94230 88299 83133 78679 74920 71829 69336 67361 65852
2358.9971 64801 64205 64019 64133 64413 64758 65154 65679 66461 67606 69154
2364.3005 71068 73275 75716 78377 81285 84474 87964 91761 95881 100370 105288
2369.6038 110680 116554 122884 129638 136805 144391 152404 160823 169606
2373.9429 178705 188101 197804 207841 218224 228937 239940 251182 262616
2378.2817 274202 285894 297634 309353 320976 332423 343604 354406 364691
2382.6208 374305 383101 390962 397824 403672 408538 412484 415598 417968
2386.9600 419678 420792 421352 421391 420948 420090 418912 417527 416042
2391.2991 414528 413007 411463 409869 408222 406549 404902 403320 401804
2395.6379 400308 398772 397159 395479 393783 392122 390518 388952 387378
2399.9771 385763 384098 382406 380722 379069 377454 375860 374260 372632
2404.3162 370968 369286 367624 366038 364577 363276 362151 361196 360387
2408.6553 359688 359046 358409 357742 357039 356323 355618 354923 354198
2412.9941 353381 352432 351361 350231 349124 348104 347191 346370 345616
2417.3333 344906 344222 343540 342826 342048 341201 340318 339448 338633
2421.6724 337881 337162 336432 335658 334834 333981 333130 332313 331552
2426.0115 330861 330243 329693 329197 328733 328273 327784 327234 326609
2430.3503 325918 325207 324539 323977 323551 323248 323016 322795 322535
2434.6895 322218 321853 321463 321071 320695 320346 320023 319717 319412
2439.0286 319093 318757 318417 318096 317823 317617 317486 317425 317423
2443.3677 317461 317515 317557 317561 317512 317411 317279 317149 317051
2447.7065 317011 317043 317149 317323 317550 317803 318051 318264 318432
2452.0457 318566 318699 318866 319092 319382 319717 320072 320419 320733
2456.3848 320998 321204 321347 321432 321471 321473 321442 321364 321224
2460.7239 321015 320756 320493 320282 320163 320136 320155 320148 320051
2465.0627 319837 319526 319168 318817 318505 318233 317983 317727 317446
2469.4019 317132 316783 316404 316004 315598 315204 314840 314524 314263
2473.7410 314058 313901 313773 313647 313492 313278 312984 312612 312183
2478.0801 311739 311320 310955 310646 310377 310118 309846 309552 309237
2482.4189 308901 308537 308137 307701 307261 306870 306593 306470 306493
2486.7581 306606 306722 306767 306702 306537 306308 306054 305793 305528
2491.0972 305256 304991 304764 304607 304536 304532 304553 304550 304490
2495.4363 304366 304194 303996 303794 303601 303422 303256 303095 302928
2499.7751 302747 302550 302349 302168 302030 301946 301909 301894 301865
2504.1143 301792 301663 301483 301277 301073 300891 300734 300588 300437
2508.4534 300271 300094 299922 299775 299666 299595 299546 299492 299407
2512.7925 299274 299096 298895 298703 298553 298457 298400 298354 298287
2517.1313 298189 298076 297980 297933 297941 297984 298021 298015 297952
2521.4705 297848 297739 297661 297628 297627 297631 297613 297565 297496
2525.8096 297418 297340 297256 297159 297049 296941 296861 296834 296870
2530.1487 296968 297113 297284 297454 297595 297684 297715 297707 297701
2534.4875 297739 297843 297998 298157 298271 298315 298303 298276 298276
2538.8267 298325 298416 298523 298623 298709 298796 298906 299059 299265
2543.1658 299523 299817 300123 300409 300642 300801 300891 300947 301023
2547.5049 301173 301423 301755 302118 302452 302716 302913 303081 303274
2551.8438 303527 303842 304191 304530 304822 305052 305224 305360 305492
2556.1829 305656 305890 306221 306661 307192 307773 308345 308856 309276
2560.5220 309608 309884 310152 310453 310813 311232 311698 312196 312715
2564.8611 313249 313794 314345 314898 315457 316030 316627 317239 317838
2569.2000 318386 318858 319259 319631 320035 320519 321100 321765 322490
2573.5391 323254 324051 324879 325724 326554 327336 328044 328685 329289
2577.8782 329901 330555 331262 332006 332757 333482 334169 334833 335514
2582.2173 336267 337136 338134 339230 340357 341441 342435 343341 344208
2586.5564 345105 346081 347142 348254 349362 350424 351426 352387 353339
2590.8953 354317 355342 356420 357543 358693 359849 360997 362139 363292
2595.2344 364486 365742 367061 368420 369781 371113 372405 373673 374949
2599.5735 376270 377660 379127 380656 382219 383780 385305 386777 388199
2603.9126 389597 391013 392485 394038 395678 397393 399171 400998 402863
2608.2515 404744 406610 408422 410156 411823 413466 415150 416925 418812
2612.5906 420794 422837 424914 427016 429141 431288 433438 435563 437642
2616.9297 439679 441699 443744 445852 448037 450291 452584 454888 457185
2621.2688 459487 461822 464226 466714 469272 471865 474458 477040 479625
2625.6077 482239 484894 487580 490278 492975 495683 498428 501226 504066
2629.9468 506915 509739 512533 515328 518174 521109 524136 527220 530310
2634.2859 533368 536394 539420 542493 545643 548871 552151 555450 558752
2638.6250 562064 565412 568810 572250 575693 579097 582440 585734 589026
2642.9639 592367 595786 599284 602836 606412 609992 613568 617132 620674
2647.3030 624183 627659 631126 634626 638195 641843 645537 649209 652795
2651.6421 656261 659620 662927 666239 669586 672953 676290 679541 682678
2655.9812 685713 688687 691644 694602 697546 700436 703223 705869 708346
2660.3201 710639 712735 714628 716312 717785 719040 720068 720863 721436
2664.6592 721827 722097 722302 722476 722608 722658 722586 722373 722040
2668.9983 721631 721203 720807 720473 720214 720015 719837 719617 719289
2673.3374 718807 718170 717431 716682 716015 715490 715104 714801 714503
2677.6763 714152 713734 713276 712818 712383 711964 711528 711041 710493
2682.0154 709898 709281 708668 708066 707473 706880 706286 705694 705111
2686.3545 704543 703988 703442 702903 702370 701844 701327 700812 700288
2690.6936 699744 699182 698627 698116 697683 697331 697026 696704 696301
2695.0325 695788 695179 694521 693872 693273 692743 692279 691870 691497
2699.3716 691132 690744 690302 689790 689213 688596 687965 687338 686721
2703.7107 686112 685510 684921 684346 683783 683229 682689 682186 681758
2708.0498 681430 681194 680994 680746 680378 679861 679226 678545 677896
2712.3887 677331 676867 676489 676164 675854 675526 675154 674724 674234
2716.7278 673687 673086 672435 671746 671045 670376 669788 669311 668935
2721.0669 668605 668248 667803 667263 666680 666148 665758 665554 665502
2725.4060 665504 665424 665148 664618 663854 662933 661959 661024 660185
2729.7449 659462 658851 658340 657912 657546 657205 656848 656438 655964
2734.0840 655455 654963 654547 654236 654016 653831 653610 653291 652845
2738.4231 652277 651625 650939 650267 649640 649065 648528 648003 647464
2742.7622 646896 646296 645677 645062 644478 643961 643536 643214 642985
2747.1011 642815 642666 642494 642267 641960 641558 641057 640464 639802
2751.4402 639095 638366 637629 636898 636195 635552 634996 634534 634141
2755.7793 633768 633365 632909 632407 631891 631389 630917 630476 630057
2760.1184 629648 629237 628809 628349 627848 627314 626767 626231 625723
2764.4573 625245 624788 624343 623906 623477 623054 622625 622168 621663
2768.7964 621098 620480 619830 619175 618542 617952 617424 616978 616633
2773.1355 616400 616263 616172 616045 615794 615362 614748 614012 613244
2777.4746 612523 611885 611315 610770 610209 609621 609021 608444 607921
2781.8135 607468 607082 606743 606418 606068 605656 605161 604597 604009
2786.1526 603470 603048 602772 602612 602488 602301 601988 601548 601036
2790.4917 600514 600007 599479 598866 598124 597272 596388 595564 594858
2794.8308 594272 593781 593367 593042 592834 592741 592704 592617 592370
2799.1697 591903 591232 590439 589634 588903 588286 587771 587306 586838
2803.5088 586331 585783 585217 584658 584111 583558 582979 582383 581824
2807.8479 581381 581109 581003 580982 580924 580719 580316 579737 579050
2812.1870 578342 577677 577085 576561 576078 575595 575080 574518 573918
2816.5259 573308 572727 572209 571772 571408 571085 570755 570372 569910
2820.8650 569372 568790 568207 567652 567131 566626 566113 565581 565038
2825.2041 564498 563971 563451 562922 562370 561794 561216 560670 560188
2829.5432 559780 559427 559081 558685 558205 557649 557066 556512 556007
2833.8821 555518 554971 554301 553511 552686 551961 551452 551182 551070
2838.2212 550959 550689 550163 549372 548379 547279 546156 545058 543995
2842.5603 542950 541888 540776 539602 538394 537222 536180 535342 534723
2846.8994 534260 533833 533322 532661 531868 531028 530250 529613 529140
2851.2383 528795 528511 528216 527864 527440 526969 526497 526071 525712
2855.5774 525404 525108 524801 524504 524292 524251 524423 524754 525107
2859.9165 525318 525273 524961 524471 523933 523455 523077 522777 522506
2864.2556 522223 521913 521579 521224 520833 520381 519841 519205 518488
2868.5945 517730 516980 516289 515708 515283 515055 515041 515216 515499
2872.9336 515763 515872 515730 515320 514701 513970 513213 512469 511735
2877.2727 510996 510259 509557 508940 508438 508047 507731 507434 507105
2881.6118 506711 506242 505714 505165 504647 504212 503890 503672 503504
2885.9507 503310 503019 502597 502060 501455 500835 500230 499645 499061
2890.2898 498453 497800 497082 496286 495418 494524 493694 493037 492633
2894.6289 492482 492487 492489 492328 491912 491242 490393 489472 488569
2898.9680 487735 486985 486308 485694 485136 484642 484221 483874 483584
2903.3069 483317 483023 482659 482195 481616 480922 480124 479249 478344
2907.6460 477467 476671 475974 475343 474714 474026 473259 472444 471642
2911.9851 470897 470200 469488 468682 467730 466645 465500 464405 463456
2916.3242 462706 462144 461703 461285 460800 460202 459503 458758 458033
2920.6631 457367 456760 456190 455640 455126 454687 454356 454126 453943
2925.0022 453726 453412 452995 452535 452139 451921 451958 452256 452738
2929.3413 453263 453668 453819 453658 453228 452649 452070 451614 451329
2933.6804 451187 451108 451012 450851 450627 450383 450170 450023 449944
2938.0193 449906 449864 449777 449622 449404 449159 448946 448822 448809
2942.3584 448876 448940 448901 448691 448304 447794 447241 446704 446194
2946.6975 445681 445117 444456 443675 442775 441791 440803 439927 439283
2951.0366 438934 438848 438895 438909 438767 438447 438017 437578 437191
2955.3755 436843 436474 436029 435508 434962 434462 434046 433709 433417
2959.7146 433152 432934 432817 432841 432998 433212 433368 433364 433162
2964.0537 432803 432377 431983 431677 431461 431301 431156 431016 430906
2968.3928 430863 430909 431017 431115 431110 430933 430584 430138 429721
2972.7317 429463 429436 429619 429903 430125 430136 429856 429308 428602
2977.0708 427880 427257 426780 426436 426191 426031 425969 426010 426118
2981.4099 426193 426115 425804 425274 424620 423961 423360 422783 422134
2985.7490 421338 420404 419452 418642 418091 417808 417706 417665 417614
2990.0879 417561 417557 417629 417729 417745 417571 417173 416633 416121
2994.4270 415820 415845 416197 416762 417356 417792 417936 417742 417249
2998.7661 416552 415762 414973 414238 413561 412900 412198 411409 410537
3003.1052 409653 408880 408349 408145 408273 408645 409090 409402 409395
3007.4441 408972 408179 407183 406192 405338 404610 403892 403097 402282
3011.7832 401657 401450 401724 402293 402812 402983 402737 402261 401858
3016.1223 401754 401992 402468 403044 403637 404217 404735 405079 405104
3020.4614 404743 404082 403352 402813 402604 402675 402825 402844 402638
3024.8003 402269 401894 401655 401597 401654 401676 401466 400805 399501
3029.1394 397488 394935 392296 390192 389160 389385 390604 392244 393733
3033.4785 394777 395430 395947 396534 397194 397745 397976 397802 397314
3037.8176 396717 396218 395937 395893 396032 396270 396520 396713 396797
3042.1565 396747 396570 396308 396029 395796 395628 395451 395097 394362
3046.4956 393121 391431 389581 388012 387148 387204 388078 389385 390626
3050.8347 391410 391609 391363 390926 390465 389939 389137 387878 386214
3055.1738 384495 383232 382832 383368 384526 385766 386588 386752 386345
3059.5127 385681 385090 384735 384520 384153 383325 381911 380078 378220
3063.8518 376763 375941 375717 375878 376236 376776 377623 378868 380404
3068.1909 381899 382964 383362 383137 382548 381897 381364 380959 380592
3072.5300 380174 379677 379127 378563 378013 377488 376988 376489 375937
3076.8689 375268 374454 373561 372741 372168 371932 371978 372134 372228
3081.2080 372204 372152 372236 372552 373041 373499 373704 373544 373078
3085.5471 372488 371958 371583 371348 371199 371116 371144 371339 371696
3089.8862 372101 372375 372358 371993 371325 370429 369321 367947 366261
3094.2251 364354 362511 361143 360586 360910 361852 362923 363636 363715
3098.5642 363170 362227 361186 360289 359670 359365 359356 359601 360044
3102.9033 360613 361215 361731 362030 362008 361639 361013 360323 359797
3107.2424 359594 359743 360133 360572 360865 360874 360545 359921 359124
3111.5813 358313 357597 356962 356268 355352 354182 352949 351994 351589
3115.9204 351722 352075 352230 351983 351516 351276 351617 352478 353340
3120.2595 353526 352651 350910 348996 347709 347504 348263 349409 350266
3124.5986 350422 349899 349070 348410 348251 348673 349539 350630 351748
3128.9375 352741 353455 353684 353212 351934 349995 347827 346017 345048
3133.2766 345068 345826 346823 347576 347850 347714 347424 347235 347266
3137.6157 347478 347752 347980 348109 348126 348033 347828 347519 347145
3141.9548 346771 346462 346259 346153 346101 346047 345943 345760 345485
3146.2937 345113 344648 344114 343546 342992 342497 342094 341802 341638
3150.6328 341613 341728 341960 342256 342538 342734 342801 342730 342541
3154.9719 342258 341901 341488 341046 340614 340230 339913 339649 339405
3159.3110 339149 338875 338606 338379 338222 338138 338105 338087 338051
3163.6499 337972 337839 337651 337415 337149 336869 336587 336307 336030
3167.9890 335756 335492 335257 335072 334958 334917 334926 334930 334857
3172.3281 334651 334317 333926 333581 333332 333101 332679 331834 330487
3176.6672 328835 327338 326517 326691 327790 329377 330871 331835 332153
3181.0061 331996 331633 331225 330743 330059 329110 328011 327031 326448
3185.3452 326396 326801 327441 328077 328561 328862 329021 329075 329032
3189.6843 328889 328671 328441 328270 328186 328150 328084 327913 327607
3194.0234 327163 326564 325761 324704 323422 322080 320965 320371 320457
3198.3623 321162 322231 323335 324217 324767 325017 325064 325004 324893
3202.7014 324756 324613 324491 324426 324447 324566 324750 324904 324869
3207.0405 324466 323579 322263 320787 319568 318998 319233 320071 321008
3211.3796 321468 321093 319934 318424 317152 316571 316806 317652 318723
3215.7185 319648 320192 320273 319921 319242 318410 317658 317220 317245
3220.0576 317724 318489 319304 319984 320467 320803 321073 321304 321441
3224.3967 321375 321028 320408 319619 318818 318140 317635 317268 316961
3228.7358 316660 316372 316146 316026 316018 316112 316326 316728 317392
3233.0747 318296 319258 319979 320190 319826 319082 318319 317859 317818
3237.4138 318065 318339 318418 318241 317918 317636 317548 317674 317868
3241.7529 317854 317332 316133 314361 312440 310998 310605 311506 313484
3246.0920 315960 318258 319890 320705 320844 320593 320225 319925 319761
3250.4309 319681 319501 318966 317879 316274 314497 313096 312550 312992
3254.7700 314124 315394 316318 316726 316781 316781 316921 317182 317418
3259.1091 317522 317530 317592 317836 318266 318745 319088 319178 319026
3263.4482 318751 318498 318369 318381 318482 318600 318683 318711 318696
3267.7871 318659 318637 318679 318838 319111 319381 319405 318913 317780
3272.1262 316172 314518 313314 312849 313054 313582 314066 314366 314611
3276.4653 315042 315767 316665 317475 318008 318282 318478 318765 319154
3280.8044 319494 319609 319460 319196 319066 319266 319825 320608 321387
3285.1433 321941 322120 321870 321242 320389 319521 318831 318410 318203
3289.4824 318046 317775 317336 316822 316426 316341 316666 317377 318353
3293.8215 319422 320404 321142 321540 321591 321389 321104 320909 320906
3298.1606 321091 321364 321596 321683 321586 321332 320992 320654 320401
3302.4995 320293 320354 320575 320914 321303 321628 321736 321460 320695
3306.8386 319483 318060 316808 316109 316178 316947 318080 319121 319688
3311.1777 319640 319125 318491 318125 318279 318965 319979 321008 321788
3315.5168 322205 322318 322282 322247 322279 322358 322421 322423 322361
3319.8557 322256 322116 321914 321605 321166 320632 320103 319704 319525
3324.1948 319577 319787 320043 320255 320397 320505 320634 320809 321008
3328.5339 321181 321300 321383 321469 321573 321639 321562 321242 320658
3332.8730 319874 318991 318080 317152 316213 315351 314776 314755 315460
3337.2119 316833 318559 320181 321302 321743 321593 321126 320660 320426
3341.5510 320510 320856 321316 321716 321918 321866 321587 321166 320692
3345.8901 320217 319752 319303 318900 318622 318561 318776 319254 319899
3350.2292 320566 321110 321432 321495 321303 320872 320211 319334 318297
3354.5681 317225 316300 315700 315516 315706 316117 316556 316868 316971
3358.9072 316847 316514 316025 315477 314999 314698 314574 314491 314224
3363.2463 313600 312623 311511 310583 310101 310138 310588 311263 312026
3367.5854 312844 313747 314746 315773 316698 317394 317794 317906 317787
3371.9243 317495 317074 316559 316005 315489 315099 314889 314852 314916
3376.2634 314980 314966 314857 314704 314600 314625 314812 315123 315461
3380.6025 315695 315686 315320 314543 313397 312033 310694 309657 309148
3384.9417 309267 309939 310935 311948 312705 313082 313133 313033 312927
3389.2805 312781 312351 311307 309487 307111 304811 303395 303453 305009
3393.6196 307431 309675 310759 310212 308283 305801 303771 302922 303425
3397.9587 304907 306710 308236 309184 309583 309649 309592 309498 309357
3402.2979 309147 308918 308774 308794 308960 309151 309215 309070 308754
3406.6367 308406 308183 308175 308370 308666 308927 309038 308952 308689
3410.9758 308328 307968 307704 307591 307636 307786 307945 308009 307916
3415.3149 307675 307343 306943 306374 305383 303661 301047 297717 294226
3419.6541 291351 289777 289812 291279 293639 296252 298633 300568 302056
3423.9929 303171 303934 304295 304204 303709 302996 302333 301940 301875
3428.3320 302003 302085 301914 301432 300747 300061 299569 299385 299518
3432.6711 299898 300398 300870 301181 301256 301110 300830 300529 300293
3437.0103 300161 300147 300244 300394 300431 300058 298945 296922 294169
3441.3491 291282 289105 288365 289261 291217 292969 293038 290422 285201
3445.6882 278707 273090 270410 271714 276575 283350 290001 294999 297820
3450.0273 298857 298928 298741 298637 298629 298595 298434 298112 297641
3454.3665 297066 296465 295933 295543 295299 295131 294951 294705 294379
3458.7053 293948 293317 292336 290906 289116 287304 285978 285600 286346
3463.0444 287964 289831 291204 291547 290783 289331 287906 287184 287503
3467.3835 288742 290425 291981 293003 293399 293359 293192 293114 293118
3471.7227 292972 292372 291152 289440 287660 286358 285957 286554 287877
3476.0615 289418 290659 291265 291130 290293 288780 286517 283410 279557
3480.4006 275449 271961 270069 270390 272836 276605 280546 283663 285456
3484.7397 285914 285275 283798 281743 279516 277743 277111 278010 280256
3489.0789 283122 285706 287397 288119 288229 288172 288160 288066 287544
3493.4177 286271 284153 281426 278632 276474 275577 276219 278163 280699
3497.7568 282927 284117 283925 282346 279472 275308 269839 263331 256607
3502.0959 250992 247884 248143 251705 257654 264666 271488 277155 280910
3506.4351 282092 280257 275555 269054 262630 258311 257391 259849 264460
3510.7739 269513 273683 276521 278365 279833 281329 282846 284110 284838
3515.1130 284918 284388 283337 281837 280010 278131 276646 275987 276242
3519.4521 276872 276742 274568 269613 262272 254117 247313 243634 243627
3523.7913 246385 250028 252620 253001 251154 248004 244874 242914 242755
3528.1301 244450 247630 251732 256200 260603 264689 268382 271713 274680
3532.4692 277084 278434 278072 275533 270993 265502 260755 258404 259280
3536.8083 262963 268004 272666 275734 276931 276747 275893 274761 273216
3541.1475 270744 266815 261199 254103 246120 238062 230751 224859 220843
3545.4863 218973 219438 222389 227860 235530 244481 253130 259536 262022
3549.8254 259870 253749 245601 238015 233338 232916 236742 243590 251530
3554.1646 258616 263516 265883 266291 265760 265069 264277 262779 259900
3558.5037 255598 250732 246629 244239 243525 243536 243085 241435 238439
3562.8428 234086 227950 219138 206901 191489 174604 159109 148134 144091
3567.1816 148000 159281 175948 195115 213737 229409 240933 248367 252532
3571.5208 254342 254404 253085 250834 248340 246318 245142 244678 244523
3575.8599 244392 244289 244293 244235 243677 242306 240401 238851 238575
3580.1990 239752 241544 242621 242105 240142 237560 234852 231334 225263
3584.5378 214954 200140 182586 165532 152378 145493 145775 152904 165732
3588.8770 182385 200173 215801 226209 229738 226840 219754 211273 203442
3593.2161 197042 192062 188561 187082 188271 192122 197578 202888 206441
3597.5552 207465 206165 203379 200151 197482 196230 196993 199936 204738
3601.8940 210739 217176 223240 227933 229976 228111 221758 211537 199147
3606.2332 186607 175458 166581 160670 158670 161465 168832 178566 186835
3610.5723 189895 186168 177222 166941 159480 157344 160672 167763 176136
3614.9114 183334 187310 186650 180900 170887 158696 147137 138916 135907
3619.2502 138807 147152 159543 173977 188276 200570 209674 215192 217344
3623.5894 216659 213708 208912 202322 193407 181103 164407 143458 120522
3627.9285 100097 87671 87533 100697 124071 151405 175606 191378 197019 194695
3632.7495 189161 185564 187273 194657 205296 215434 221898 223530 221451
3637.0886 218191 216243 216876 219722 223210 225484 225311 222612 218458
3641.4277 214604 212716 213560 216420 219051 218292 211268 196726 175866
3645.7668 152142 129947 112768 101762 95609 91754 88299 85391 85243 90832
3650.5879 104110 124784 150213 176226 198256 212345 215987 208899 193609
3654.9270 175309 160518 154742 160167 174725 193213 209903 221140 226486
3659.2661 227982 228328 229284 231156 233306 234990 235849 235923 235452
3663.6050 234731 234022 233355 232225 229432 223367 212729 197254 177983
3667.9441 156972 136738 119901 109059 106538 113612 129321 149649 167989
3672.2832 177182 172420 153574 125699 97335 77347 71669 81297 102271 127557
3677.1042 149998 165084 172356 174860 177064 182389 191675 203236 214168
3681.4434 221953 225459 225086 222302 218961 216523 215263 213749 209127
3685.7825 198497 180881 158528 136404 119862 111853 111574 115519 120163
3690.1216 124321 129538 138366 151980 168910 185725 198981 206983 210259
3694.4604 210702 210246 210011 210298 211074 212364 214181 216084 216842
3698.7996 214638 207912 196480 182280 169112 161272 161605 170023 183387
3703.1387 196970 206763 211274 211771 210831 210207 209467 206349 198573
3707.4778 185770 170095 155011 143127 134709 128043 121395 115048 111748
3711.8167 115063 126801 145392 166488 185350 199274 208357 214250 218120
3716.1558 219569 217339 211068 202469 194746 190556 190043 190554 188392
3720.4949 181458 170897 160578 154708 155187 160434 166399 169027 166576
3724.8340 160432 154115 151285 154015 162155 173776 186052 195984 200841
3729.1729 198628 188804 172960 154772 138749 128149 123261 121308 118259
3733.5120 111480 101493 91653 86072 87304 95319 108174 123455 139226 153987
3738.3333 166243 174581 178468 178927 178072 177408 176104 170882 158088
3742.6721 136825 110919 88090 76504 80643 98878 124060 146706 159040 157951
3747.4934 145679 128173 112064 101699 97633 97283 97323 96395 96419 101526
3752.3145 115182 137328 163508 186773 201284 205360 202018 196663 193522
3756.6536 193212 193030 189645 182195 173548 168830 172284 184645 202751
3760.9927 221437 236197 244776 246985 243494 235023 222702 209017 198008
3765.3318 193859 198453 209560 221243 226639 221676 207490 190062 177254
3769.6707 174960 184497 202516 223167 241056 253331 260005 262837 263816
3774.0098 264231 264576 264842 264632 262990 258367 249260 235403 218785
3778.3489 203549 194480 194818 204628 220708 238004 251660 258621 258229
3782.6880 251932 242537 233374 227444 226618 231100 239419 249102 257717
3787.0269 263778 267078 268388 268814 269222 269954 270882 271663 272059
3791.3660 272131 272138 272124 271406 268393 261116 248381 230984 212144
3795.7051 196657 188970 191033 201015 213597 221853 219963 205665 181362
3800.0442 153391 129745 117238 119303 135209 160676 189304 214143 229175
3804.3831 230773 219037 198425 176840 162947 162686 176756 200583 226812
3808.7222 248820 263223 270238 272288 272140 271675 271466 270725 267371
3813.0613 258507 241731 217022 188082 161868 146014 145260 158886 180625
3817.4004 201132 211725 207620 189425 162610 135435 116188 110611 120292
3821.7393 142482 171339 200031 222817 236387 240190 235990 227089 217483
3826.0784 211039 210624 217243 229430 243301 253582 255590 247500 231708
3830.4175 214203 201780 198417 203018 210176 213660 210311 201578 191680
3834.7566 183944 178325 172041 162611 150557 139451 133334 133839 139455
3839.0955 147314 155675 164764 175406 186999 197007 202665 203472 202233
3843.4346 203593 211099 224957 241995 257621 268235 272571 271501 266860
3847.7737 260241 252312 242753 230618 214888 195031 171400 145373 119282 96240
3852.5947 79833 73474 79301 96925 122838 151248 176312 194719 207010 216669
3857.4160 227412 240382 253105 260934 260064 250154 234831 219722 209247
3861.7551 204185 201579 197059 188145 176436 167209 166525 177493 197868
3866.0940 220426 235948 237264 222384 195388 164893 140899 131209 138609
3870.4331 159752 186313 208263 218142 214409 202052 189935 186227 194501
3874.7722 212643 234863 255089 269364 276061 274633 264686 246506 222501
3879.1113 197888 179375 172314 178088 193481 212288 227978 235841 233881
3883.4502 222791 205664 187556 174480 171610 181217 201489 227030 250851
3887.7893 266759 271073 263234 245633 223018 201504 187041 183503 191211
3892.1284 206853 225092 241104 252574 260000 265255 269490 271825 269723
3896.4675 260770 244680 224176 204063 188977 181133 179447 180541 180910
3900.8064 178813 174729 170345 167080 165352 165015 166354 170577 179253
3905.1455 193105 211136 230793 249047 263629 273671 279563 282378 283316
3909.4846 283387 283267 283230 283196 282971 282542 282137 281846 281028
3913.8237 278097 271178 259483 244499 229951 220189 217830 222178 229605
3918.1626 235775 238290 237980 237988 241313 248518 257118 262983 262741
3922.5017 255687 244162 232421 224780 223972 230299 241688 254521 264936
3926.8408 270217 269712 264852 258176 251890 246803 242295 237288 231496
3931.1799 226059 223092 224471 230684 240486 251539 261542 269121 274029
3935.5188 276709 277707 277393 276110 274447 273239 273125 273931 274391
3939.8579 272578 266952 257455 245983 235836 230364 231458 238662 249327
3944.1970 259720 266548 268171 264998 258945 252338 246874 243176 241080
3948.5361 240302 240926 243336 247695 253458 259393 264174 267110 268476
3952.8750 269181 270047 271249 272305 272560 271742 270184 268613 267729
3957.2141 267856 268846 270169 271101 270965 269399 266609 263430 261054
3961.5532 260495 262066 265212 268818 271825 273732 274693 275188 275556
3965.8923 275729 275348 274121 272160 270023 268428 267837 268172 268870
3970.2312 269222 268803 267688 266349 265306 264787 264630 264477 264111
3974.5703 263667 263573 264258 265841 268014 270200 271847 272682 272759
3978.9094 272334 271667 270915 270148 269435 268901 268693 268890 269424
3983.2485 270101 270700 271092 271300 271452 271674 271979 272230 272180
3987.5874 271587 270337 268539 266536 264821 263875 263960 264985 266493
3991.9265 267824 268399 267980 266793 265427 264547 264587 265563 267101
3996.2656 268659 269791 270321 270352 270128 269872 269679 269521 269328
##END= 
