##TITLE= BENZOCAINA
##JCAMP-DX= 4.24
##DATA TYPE= INFRARED SPECTRUM
##ORIGIN= JASCO
##OWNER= 
##DATE= 22/05/10
##TIME= 15:17:44
##SPECTROMETER/DATA SYSTEM= 
##RESOLUTION= 
##DELTAX=   0.48211674
##XUNITS= 1/CM
##YUNITS= TRANSMITTANCE
##XFACTOR= 1.00000
##YFACTOR= 0.0001
##FIRSTX=   599.7532
##LASTX=  4000.1226
##NPOINTS=     7054
##FIRSTY=      0.46919
##MAXY=      1.01854
##MINY=      0.42306
##XYDATA= (X++(Y..Y))
599.7532 4692 4696 4691 4684 4683 4692 4710 4731 4752 4766 4773 4774 4773 4775
606.5029 4784 4802 4826 4850 4869 4880 4882 4875 4857 4831 4797 4760 4731 4716
613.2525 4719 4740 4767 4790 4801 4795 4776 4754 4736 4726 4724 4720 4709 4689
620.0021 4666 4646 4641 4653 4680 4713 4744 4766 4778 4784 4796 4819 4859 4909
626.7518 4958 4996 5015 5017 5011 5008 5016 5036 5061 5084 5095 5092 5076 5053
633.5014 5032 5018 5012 5013 5017 5019 5017 5010 5002 4995 4990 4987 4985 4984
640.2510 4982 4976 4967 4954 4936 4916 4896 4880 4872 4876 4891 4912 4931 4943
647.0007 4942 4932 4917 4905 4899 4899 4901 4905 4912 4924 4941 4958 4969 4972
653.7503 4969 4967 4974 4991 5016 5039 5055 5060 5055 5047 5040 5038 5039 5040
660.4999 5035 5021 4995 4963 4933 4913 4908 4917 4931 4941 4944 4938 4926 4912
667.2496 4902 4906 4940 4985 5014 5027 5031 5026 5011 4988 4962 4941 4930 4933
673.9992 4944 4956 4961 4954 4938 4916 4893 4872 4854 4838 4825 4817 4818 4830
680.7488 4852 4878 4901 4913 4911 4900 4888 4883 4892 4913 4941 4966 4985 4993
687.4985 4991 4983 4971 4959 4951 4947 4949 4956 4967 4978 4987 4991 4990 4984
694.2481 4974 4963 4955 4951 4951 4955 4962 4972 4987 5010 5044 5087 5134 5179
700.9977 5211 5223 5212 5182 5144 5112 5100 5112 5146 5190 5230 5258 5270 5270
707.7474 5268 5270 5279 5293 5310 5327 5345 5365 5391 5421 5451 5472 5480 5474
714.4970 5458 5439 5427 5425 5432 5446 5461 5473 5481 5487 5493 5504 5518 5532
721.2466 5537 5531 5514 5493 5475 5467 5473 5487 5504 5520 5535 5552 5575 5603
727.9963 5630 5649 5654 5645 5628 5610 5598 5592 5588 5584 5577 5568 5562 5561
734.7459 5566 5576 5585 5592 5599 5610 5627 5649 5673 5694 5709 5719 5726 5732
741.4955 5737 5739 5737 5735 5737 5748 5769 5800 5836 5868 5888 5892 5882 5864
748.2452 5848 5841 5845 5856 5870 5885 5907 5944 6001 6074 6153 6221 6266 6284
754.9948 6278 6252 6215 6173 6132 6100 6085 6092 6123 6172 6228 6278 6313 6330
761.7444 6332 6326 6320 6318 6322 6328 6333 6336 6336 6333 6325 6310 6284 6249
768.4941 6208 6169 6134 6103 6069 6026 5970 5901 5826 5752 5683 5619 5558 5499
775.2437 5441 5389 5345 5311 5287 5270 5260 5257 5263 5282 5314 5362 5424 5501
781.9933 5588 5684 5783 5881 5971 6053 6126 6193 6257 6322 6388 6454 6518 6576
788.7430 6626 6665 6697 6724 6751 6783 6821 6862 6903 6939 6970 6997 7021 7042
795.4926 7061 7076 7090 7105 7124 7148 7175 7200 7222 7239 7254 7270 7287 7306
802.2422 7324 7339 7353 7366 7381 7398 7415 7430 7441 7447 7450 7453 7459 7469
808.9919 7484 7501 7515 7522 7523 7520 7518 7520 7529 7543 7561 7578 7593 7603
815.7415 7609 7610 7608 7604 7601 7600 7603 7609 7617 7625 7630 7631 7628 7622
822.4911 7615 7610 7611 7616 7624 7632 7637 7637 7634 7628 7621 7614 7610 7608
829.2408 7611 7618 7627 7635 7639 7640 7639 7640 7642 7647 7651 7653 7651 7647
835.9904 7643 7641 7642 7646 7653 7659 7665 7667 7664 7656 7644 7630 7617 7606
842.7401 7599 7595 7591 7588 7583 7577 7570 7564 7557 7552 7545 7536 7523 7505
849.4897 7481 7454 7428 7403 7381 7357 7329 7295 7254 7208 7158 7107 7052 6995
856.2393 6936 6876 6817 6761 6708 6658 6610 6566 6528 6500 6486 6489 6511 6548
862.9890 6600 6660 6724 6789 6852 6910 6966 7018 7069 7117 7163 7207 7250 7291
869.7386 7330 7367 7400 7429 7452 7470 7483 7493 7501 7507 7511 7514 7513 7509
876.4882 7503 7496 7491 7486 7483 7480 7473 7462 7445 7423 7399 7375 7353 7334
883.2379 7317 7301 7284 7263 7237 7206 7170 7131 7091 7051 7013 6977 6943 6909
889.9875 6874 6836 6797 6756 6714 6674 6635 6599 6567 6538 6512 6488 6466 6445
896.7371 6426 6409 6395 6382 6370 6357 6346 6335 6329 6327 6331 6340 6354 6369
903.4868 6386 6404 6425 6448 6475 6507 6541 6576 6610 6644 6678 6714 6754 6798
910.2364 6846 6898 6952 7007 7064 7122 7179 7237 7295 7354 7413 7473 7533 7592
916.9860 7649 7704 7757 7806 7853 7896 7938 7980 8021 8061 8097 8128 8153 8171
923.7357 8185 8195 8204 8211 8216 8216 8209 8192 8165 8130 8087 8038 7985 7928
930.4853 7863 7791 7710 7621 7525 7425 7325 7229 7141 7065 7003 6958 6931 6922
937.2349 6932 6958 6997 7045 7101 7161 7223 7288 7355 7421 7487 7550 7610 7667
943.9846 7724 7778 7831 7880 7924 7961 7993 8020 8044 8070 8096 8123 8151 8179
950.7342 8205 8231 8255 8278 8299 8318 8335 8352 8369 8386 8404 8421 8439 8456
957.4838 8473 8490 8508 8526 8544 8563 8583 8602 8620 8637 8652 8666 8681 8696
964.2335 8712 8727 8739 8749 8756 8763 8772 8782 8793 8804 8814 8820 8823 8824
970.9831 8825 8830 8839 8852 8866 8881 8893 8904 8914 8924 8934 8944 8952 8959
977.7327 8964 8970 8979 8991 9004 9017 9025 9029 9028 9026 9025 9026 9030 9036
984.4824 9041 9046 9048 9049 9050 9051 9052 9055 9058 9062 9066 9071 9075 9081
991.2320 9086 9092 9095 9095 9093 9091 9089 9090 9093 9099 9104 9108 9110 9110
997.9816 9109 9109 9111 9115 9120 9125 9129 9131 9131 9131 9132 9132 9133 9132
1004.7313 9129 9125 9121 9119 9119 9122 9126 9133 9140 9147 9153 9156 9154
1010.9988 9150 9145 9140 9137 9135 9135 9134 9134 9134 9135 9137 9139 9139
1017.2663 9138 9135 9129 9123 9118 9115 9116 9119 9122 9124 9123 9120 9115
1023.5338 9109 9103 9097 9093 9091 9090 9089 9087 9081 9070 9055 9039 9025
1029.8014 9013 9006 9001 8996 8988 8977 8962 8944 8925 8905 8886 8867 8846
1036.0688 8823 8798 8771 8741 8709 8673 8634 8591 8543 8491 8433 8368 8296
1042.3364 8217 8134 8048 7962 7877 7793 7711 7631 7556 7488 7435 7401 7390
1048.6039 7403 7437 7489 7554 7628 7708 7793 7881 7970 8061 8153 8247 8342
1054.8715 8439 8537 8631 8718 8796 8863 8917 8960 8993 9019 9041 9061 9078
1061.1389 9094 9105 9113 9118 9121 9124 9127 9130 9132 9131 9128 9126 9125
1067.4065 9125 9125 9123 9119 9111 9102 9091 9081 9071 9060 9048 9036 9022
1073.6740 9009 8997 8987 8977 8967 8958 8950 8942 8934 8923 8909 8890 8866
1079.9415 8841 8816 8794 8775 8758 8741 8724 8704 8682 8658 8631 8603 8575
1086.2090 8545 8515 8483 8446 8404 8357 8304 8247 8186 8124 8059 7993 7923
1092.4766 7849 7774 7698 7627 7565 7514 7476 7451 7435 7425 7418 7411 7402
1098.7440 7388 7369 7346 7321 7299 7283 7279 7289 7313 7351 7400 7455 7512
1105.0116 7567 7616 7655 7681 7694 7694 7683 7663 7638 7605 7566 7518 7460
1111.2791 7393 7319 7236 7146 7047 6937 6815 6680 6530 6366 6188 5997 5795
1117.5466 5587 5378 5174 4982 4807 4653 4522 4415 4332 4273 4238 4231 4251
1123.8141 4301 4377 4477 4595 4727 4869 5020 5180 5350 5534 5731 5943 6166
1130.0817 6395 6623 6844 7052 7244 7423 7588 7744 7889 8026 8152 8266 8370
1136.3491 8464 8549 8628 8700 8768 8830 8886 8936 8980 9019 9056 9091 9125
1142.6167 9157 9185 9207 9225 9239 9251 9262 9273 9284 9292 9297 9300 9301
1148.8842 9302 9304 9307 9312 9318 9325 9332 9339 9345 9350 9354 9357 9359
1155.1517 9360 9359 9358 9357 9356 9355 9355 9355 9356 9358 9360 9360 9358
1161.4192 9353 9347 9341 9336 9332 9329 9327 9324 9322 9321 9322 9325 9328
1167.6868 9330 9329 9326 9320 9314 9310 9307 9307 9308 9308 9308 9306 9304
1173.9542 9301 9298 9295 9290 9285 9279 9274 9269 9266 9264 9262 9262 9261
1180.2218 9260 9258 9255 9250 9245 9240 9235 9232 9229 9227 9226 9225 9225
1186.4893 9224 9222 9219 9215 9210 9204 9198 9192 9186 9180 9176 9173 9171
1192.7568 9171 9173 9174 9176 9176 9173 9169 9163 9157 9152 9150 9150 9150
1199.0243 9149 9144 9135 9125 9116 9109 9104 9103 9102 9102 9102 9102 9100
1205.2919 9098 9093 9087 9080 9072 9065 9060 9055 9050 9044 9038 9031 9026
1211.5593 9023 9021 9021 9022 9021 9019 9017 9013 9010 9006 9002 8997 8990
1217.8269 8982 8973 8963 8954 8947 8942 8938 8934 8929 8924 8918 8912 8908
1224.0944 8905 8901 8896 8888 8877 8866 8856 8847 8841 8837 8832 8827 8819
1230.3619 8810 8801 8792 8785 8778 8771 8765 8757 8749 8740 8731 8720 8709
1236.6294 8697 8685 8673 8661 8649 8638 8627 8615 8602 8590 8579 8568 8557
1242.8970 8545 8531 8516 8501 8486 8471 8458 8446 8434 8420 8405 8387 8367
1249.1644 8346 8326 8307 8288 8270 8251 8231 8208 8183 8156 8128 8099 8069
1255.4320 8039 8008 7975 7942 7906 7868 7827 7784 7737 7688 7635 7578 7517
1261.6995 7451 7378 7300 7216 7129 7038 6942 6842 6735 6623 6505 6383 6258
1267.9670 6131 6004 5881 5763 5651 5547 5451 5364 5288 5225 5178 5150 5146
1274.2345 5169 5221 5305 5418 5558 5718 5895 6082 6273 6466 6656 6841 7017
1280.5021 7183 7338 7481 7612 7732 7842 7943 8034 8117 8191 8257 8314 8364
1286.7695 8407 8443 8472 8496 8514 8527 8537 8544 8549 8551 8550 8546 8539
1293.0371 8529 8518 8504 8489 8472 8455 8436 8414 8391 8366 8337 8306 8271
1299.3046 8232 8190 8145 8096 8044 7988 7929 7865 7796 7723 7643 7555 7460
1305.5721 7356 7243 7124 6996 6862 6723 6582 6444 6315 6201 6107 6038 5997
1311.8396 5983 5998 6034 6087 6148 6215 6287 6368 6462 6571 6695 6829 6970
1318.1072 7112 7252 7386 7510 7622 7720 7806 7884 7956 8026 8092 8153 8208
1324.3746 8255 8294 8327 8354 8378 8398 8416 8431 8443 8452 8458 8461 8461
1330.6422 8458 8454 8448 8442 8436 8430 8422 8413 8401 8387 8372 8357 8343
1336.9097 8329 8316 8303 8290 8279 8268 8257 8245 8230 8213 8193 8171 8148
1343.1772 8125 8102 8078 8054 8030 8006 7981 7956 7930 7905 7878 7851 7821
1349.4447 7790 7758 7724 7690 7654 7616 7576 7535 7492 7446 7396 7342 7285
1355.7123 7224 7158 7085 7004 6915 6821 6728 6641 6563 6498 6447 6412 6394
1361.9797 6395 6412 6442 6477 6511 6538 6558 6572 6577 6576 6567 6556 6546
1368.2473 6541 6543 6547 6552 6553 6549 6540 6529 6517 6508 6508 6519 6543
1374.5148 6572 6598 6614 6619 6615 6605 6589 6568 6541 6510 6474 6434 6391
1380.7823 6344 6296 6248 6200 6152 6105 6058 6012 5966 5922 5879 5837 5798
1387.0498 5761 5727 5695 5663 5631 5597 5563 5530 5499 5471 5444 5418 5393
1393.3174 5370 5349 5334 5324 5319 5313 5304 5293 5283 5276 5278 5290 5312
1399.5848 5336 5356 5371 5384 5396 5409 5424 5440 5458 5482 5512 5548 5584
1405.8524 5616 5643 5668 5694 5721 5750 5779 5806 5832 5857 5882 5909 5938
1412.1199 5967 5997 6026 6052 6076 6097 6118 6139 6161 6181 6198 6212 6227
1418.3875 6252 6291 6338 6377 6397 6404 6403 6401 6400 6405 6418 6436 6454
1424.6549 6467 6474 6478 6482 6488 6498 6510 6526 6547 6576 6616 6662 6707
1430.9225 6745 6776 6805 6834 6864 6892 6914 6927 6934 6940 6957 6995 7052
1437.1899 7106 7141 7163 7179 7196 7216 7237 7259 7279 7296 7311 7323 7333
1443.4575 7341 7349 7357 7365 7370 7375 7380 7387 7400 7417 7434 7447 7454
1449.7250 7456 7457 7459 7460 7462 7462 7459 7452 7443 7430 7416 7399 7380
1455.9926 7362 7349 7344 7347 7350 7348 7343 7336 7328 7321 7313 7304 7294
1462.2600 7282 7268 7254 7239 7223 7206 7187 7166 7143 7118 7090 7059 7026
1468.5276 6992 6958 6924 6889 6853 6816 6777 6739 6702 6666 6632 6600 6569
1474.7950 6538 6507 6478 6451 6428 6405 6384 6362 6340 6320 6304 6293 6287
1481.0626 6288 6291 6295 6300 6306 6313 6322 6332 6343 6356 6375 6402 6438
1487.3301 6475 6506 6529 6549 6581 6635 6707 6773 6819 6849 6872 6893 6915
1493.5977 6936 6956 6975 7000 7036 7081 7125 7157 7180 7200 7224 7250 7273
1499.8651 7287 7293 7294 7295 7296 7298 7298 7293 7284 7270 7253 7234 7219
1506.1327 7222 7252 7283 7294 7292 7281 7268 7252 7236 7221 7206 7194 7182
1512.4001 7169 7155 7136 7112 7085 7056 7030 7009 7000 6997 6991 6973 6945
1518.6677 6911 6876 6839 6805 6781 6775 6779 6770 6745 6713 6679 6646 6613
1524.9352 6582 6552 6524 6499 6475 6451 6427 6401 6374 6345 6315 6281 6246
1531.2028 6211 6177 6147 6122 6102 6084 6061 6034 6000 5963 5922 5879 5836
1537.4702 5792 5750 5710 5676 5659 5655 5646 5623 5589 5549 5509 5471 5437
1543.7378 5405 5372 5339 5305 5272 5237 5202 5164 5125 5084 5045 5008 4977
1550.0052 4950 4923 4894 4860 4825 4788 4750 4714 4682 4654 4629 4602 4572
1556.2728 4537 4495 4445 4384 4321 4312 4376 4414 4414 4400 4382 4363 4344
1562.5403 4326 4309 4296 4290 4295 4307 4320 4328 4330 4325 4317 4310 4311
1568.8079 4331 4376 4428 4463 4481 4489 4498 4511 4528 4544 4558 4565 4571
1575.0753 4585 4626 4704 4792 4851 4882 4901 4919 4942 4971 5003 5038 5073
1581.3429 5108 5145 5182 5220 5259 5298 5337 5376 5415 5454 5492 5529 5565
1587.6105 5601 5638 5676 5716 5757 5800 5842 5882 5921 5956 5990 6024 6060
1593.8779 6098 6140 6182 6224 6263 6300 6337 6373 6409 6445 6479 6513 6547
1600.1455 6582 6618 6655 6693 6733 6773 6815 6856 6895 6933 6969 7007 7048
1606.4130 7091 7137 7182 7226 7270 7316 7365 7415 7462 7505 7545 7583 7621
1612.6805 7661 7700 7734 7763 7785 7805 7832 7879 7949 8018 8063 8087 8102
1618.9480 8117 8137 8161 8187 8211 8233 8253 8276 8308 8349 8390 8420 8438
1625.2156 8448 8456 8466 8479 8501 8530 8563 8592 8614 8631 8646 8661 8677
1631.4830 8694 8710 8722 8731 8737 8743 8753 8773 8805 8837 8859 8871 8881
1637.7506 8891 8902 8911 8920 8927 8934 8941 8948 8956 8965 8973 8980 8986
1644.0181 8989 8991 8992 8994 9002 9017 9036 9052 9061 9065 9065 9063 9059
1650.2856 9055 9050 9045 9040 9036 9043 9068 9088 9093 9093 9093 9093 9093
1656.5531 9094 9095 9095 9095 9095 9095 9095 9095 9093 9090 9088 9088 9091
1662.8207 9097 9102 9105 9104 9102 9098 9094 9091 9088 9086 9086 9089 9095
1669.0881 9100 9102 9099 9094 9090 9087 9086 9084 9081 9077 9072 9070 9072
1675.3557 9080 9088 9093 9094 9093 9092 9092 9094 9098 9104 9109 9112 9113
1681.6232 9112 9108 9104 9103 9112 9143 9176 9186 9183 9177 9172 9169 9170
1687.8907 9174 9180 9187 9193 9197 9200 9203 9206 9210 9213 9215 9215 9212
1694.1582 9209 9207 9210 9225 9247 9263 9267 9264 9257 9248 9241 9244 9273
1700.4258 9319 9343 9345 9340 9335 9333 9333 9337 9342 9348 9355 9364 9377
1706.6932 9392 9405 9415 9421 9424 9426 9429 9435 9441 9448 9452 9454 9455
1712.9608 9454 9454 9458 9465 9476 9485 9490 9490 9485 9479 9478 9485 9495
1719.2283 9504 9511 9515 9519 9523 9527 9531 9535 9539 9543 9546 9548 9550
1725.4958 9552 9555 9558 9562 9564 9565 9563 9560 9556 9555 9556 9559 9562
1731.7633 9563 9564 9566 9573 9591 9612 9622 9621 9615 9608 9601 9596 9591
1738.0309 9588 9588 9590 9595 9602 9609 9613 9615 9616 9614 9612 9609 9607
1744.2983 9607 9610 9615 9620 9625 9629 9631 9630 9626 9622 9618 9615 9614
1750.5659 9618 9627 9638 9649 9655 9658 9658 9657 9655 9653 9652 9653 9656
1756.8334 9661 9666 9671 9674 9676 9676 9676 9676 9678 9683 9691 9700 9706
1763.1010 9709 9708 9706 9703 9702 9701 9703 9706 9712 9720 9728 9733 9734
1769.3684 9731 9725 9718 9711 9707 9707 9715 9725 9732 9736 9737 9736 9734
1775.6360 9732 9729 9726 9724 9722 9722 9722 9724 9726 9728 9731 9734 9738
1781.9034 9743 9747 9750 9751 9751 9750 9748 9747 9747 9748 9750 9751 9751
1788.1710 9750 9749 9749 9749 9752 9756 9763 9773 9783 9789 9790 9786 9782
1794.4385 9779 9780 9784 9790 9796 9799 9800 9798 9796 9795 9795 9798 9801
1800.7061 9804 9808 9810 9812 9812 9811 9808 9806 9804 9803 9803 9805 9808
1806.9735 9812 9816 9818 9820 9822 9824 9828 9832 9837 9841 9843 9844 9845
1813.2411 9845 9846 9848 9849 9850 9850 9850 9850 9851 9853 9856 9858 9858
1819.5085 9858 9856 9854 9853 9852 9852 9851 9849 9848 9849 9851 9855 9859
1825.7761 9860 9858 9853 9848 9840 9833 9827 9828 9841 9862 9883 9897 9902
1832.0436 9899 9891 9882 9873 9866 9861 9858 9856 9854 9853 9854 9856 9860
1838.3112 9864 9868 9870 9869 9865 9861 9856 9853 9852 9854 9859 9866 9872
1844.5786 9876 9877 9875 9873 9872 9874 9878 9884 9892 9898 9902 9904 9905
1850.8462 9904 9902 9898 9894 9890 9886 9884 9884 9888 9893 9899 9905 9909
1857.1136 9913 9917 9921 9925 9926 9924 9918 9911 9904 9901 9901 9903 9908
1863.3812 9913 9917 9920 9921 9921 9919 9914 9906 9898 9891 9890 9897 9910
1869.6487 9922 9929 9931 9931 9930 9930 9932 9935 9936 9937 9936 9935 9933
1875.9163 9928 9922 9913 9905 9902 9904 9912 9923 9935 9943 9946 9948 9948
1882.1837 9950 9955 9962 9967 9969 9967 9960 9953 9948 9946 9947 9950 9953
1888.4513 9954 9953 9949 9942 9935 9930 9928 9931 9939 9948 9957 9960 9958
1894.7188 9950 9941 9932 9927 9924 9924 9925 9928 9933 9939 9943 9943 9939
1900.9863 9932 9924 9920 9920 9928 9942 9960 9977 9991 9998 9996 9986 9970
1907.2538 9953 9937 9927 9922 9921 9922 9922 9923 9925 9929 9935 9940 9943
1913.5214 9944 9943 9943 9945 9950 9957 9964 9969 9971 9969 9965 9961 9959
1919.7888 9959 9962 9968 9976 9984 9987 9982 9971 9956 9946 9942 9944 9951
1926.0564 9957 9962 9963 9962 9960 9956 9952 9950 9951 9960 9976 9997 10014
1932.3239 10021 10014 9998 9978 9963 9955 9953 9953 9953 9955 9960 9970 9986
1938.5914 10002 10013 10015 10005 9984 9952 9914 9878 9854 9845 9850 9860 9868
1944.8589 9873 9879 9891 9911 9939 9968 9993 10006 10006 9992 9968 9942 9920
1951.1265 9906 9899 9896 9893 9890 9889 9896 9913 9936 9960 9978 9985 9985
1957.3939 9978 9970 9964 9961 9962 9966 9969 9968 9960 9949 9943 9952 9977
1963.6615 10013 10046 10058 10038 9988 9919 9853 9808 9795 9810 9842 9883 9926
1969.9290 9968 10003 10024 10022 9996 9949 9894 9841 9796 9762 9736 9715 9700
1976.1965 9694 9702 9729 9774 9826 9872 9897 9895 9868 9828 9791 9768 9766
1982.4640 9781 9803 9821 9829 9824 9814 9807 9813 9836 9874 9917 9951 9966
1988.7316 9961 9944 9930 9927 9937 9950 9952 9935 9901 9866 9845 9848 9870
1994.9990 9902 9928 9937 9927 9901 9868 9839 9822 9823 9841 9874 9916 9957
2001.2666 9988 10002 9996 9972 9936 9898 9871 9864 9878 9909 9947 9976 9986
2007.5341 9972 9938 9893 9844 9796 9753 9722 9710 9723 9762 9817 9873 9910
2013.8016 9921 9909 9890 9877 9877 9884 9884 9870 9844 9819 9809 9817 9839
2020.0691 9863 9880 9885 9881 9871 9855 9833 9807 9782 9766 9767 9788 9824
2026.3367 9863 9896 9918 9932 9945 9957 9967 9967 9950 9918 9883 9861 9866
2032.6041 9900 9954 10006 10034 10023 9970 9886 9791 9710 9661 9656 9694 9760
2038.8717 9835 9899 9941 9960 9962 9956 9949 9941 9932 9928 9934 9957 9993
2045.1392 10031 10055 10053 10022 9971 9915 9867 9835 9821 9820 9827 9840 9855
2051.4067 9869 9880 9887 9888 9885 9878 9872 9869 9873 9883 9895 9904 9902
2057.6743 9888 9865 9844 9835 9842 9862 9886 9900 9902 9893 9880 9867 9858
2063.9417 9849 9839 9829 9822 9825 9838 9857 9878 9895 9905 9908 9910 9912
2070.2092 9915 9917 9914 9902 9883 9860 9841 9829 9828 9835 9845 9854 9862
2076.4768 9868 9874 9882 9893 9906 9917 9924 9925 9919 9909 9899 9893 9893
2082.7444 9897 9901 9902 9898 9890 9881 9876 9876 9880 9882 9880 9872 9861
2089.0117 9852 9850 9857 9874 9895 9916 9932 9940 9938 9928 9914 9900 9889
2095.2793 9884 9881 9880 9879 9878 9881 9887 9894 9898 9897 9890 9881 9874
2101.5469 9872 9875 9879 9883 9886 9887 9888 9888 9885 9874 9858 9839 9824
2107.8145 9819 9825 9838 9852 9861 9860 9851 9836 9821 9809 9803 9803 9809
2114.0818 9818 9831 9845 9859 9870 9877 9877 9872 9864 9857 9851 9846 9842
2120.3494 9837 9830 9822 9817 9816 9821 9830 9841 9851 9855 9855 9850 9842
2126.6169 9835 9830 9828 9829 9835 9844 9855 9866 9874 9878 9878 9877 9879
2132.8845 9883 9887 9884 9872 9851 9825 9800 9785 9781 9790 9808 9831 9852
2139.1519 9870 9881 9888 9891 9890 9884 9869 9847 9821 9796 9781 9779 9786
2145.4194 9797 9804 9803 9795 9787 9785 9792 9803 9813 9814 9807 9799 9803
2151.6870 9830 9878 9934 9975 9988 9971 9940 9919 9921 9940 9956 9943 9888
2157.9546 9801 9709 9639 9607 9607 9622 9636 9641 9637 9626 9610 9593 9581
2164.2219 9580 9595 9623 9654 9678 9686 9676 9653 9628 9615 9620 9640 9667
2170.4895 9685 9681 9654 9615 9582 9575 9603 9660 9729 9791 9828 9838 9827
2176.7571 9806 9780 9750 9717 9681 9649 9631 9634 9659 9697 9736 9765 9778
2183.0247 9782 9783 9790 9805 9824 9836 9835 9814 9777 9732 9690 9663 9660
2189.2920 9682 9727 9783 9836 9870 9877 9855 9814 9767 9728 9705 9699 9706
2195.5596 9721 9740 9759 9778 9797 9813 9825 9834 9836 9834 9826 9816 9803
2201.8271 9790 9778 9765 9753 9740 9731 9726 9728 9735 9743 9749 9749 9745
2208.0947 9737 9731 9730 9734 9744 9753 9757 9751 9736 9718 9704 9700 9704
2214.3621 9712 9716 9713 9706 9703 9710 9729 9754 9776 9786 9784 9773 9757
2220.6296 9740 9722 9705 9695 9699 9723 9762 9804 9831 9834 9813 9778 9745
2226.8972 9723 9715 9717 9721 9726 9732 9742 9758 9777 9794 9805 9807 9801
2233.1648 9790 9777 9765 9756 9752 9756 9770 9791 9815 9835 9845 9843 9831
2239.4321 9817 9807 9805 9808 9811 9811 9807 9802 9801 9806 9816 9825 9829
2245.6997 9824 9812 9796 9781 9769 9760 9754 9750 9750 9755 9764 9776 9789
2251.9673 9801 9810 9818 9823 9827 9826 9820 9808 9791 9775 9764 9757 9754
2258.2349 9749 9737 9719 9697 9678 9667 9667 9676 9688 9702 9715 9727 9740
2264.5022 9749 9754 9752 9743 9731 9719 9708 9700 9692 9686 9683 9684 9690
2270.7698 9698 9705 9710 9711 9711 9710 9707 9701 9692 9681 9670 9664 9662
2277.0374 9663 9665 9667 9669 9673 9679 9686 9690 9691 9688 9683 9678 9675
2283.3049 9675 9677 9680 9683 9683 9682 9681 9678 9674 9667 9658 9648 9641
2289.5723 9638 9642 9653 9667 9681 9691 9695 9693 9689 9685 9682 9682 9684
2295.8398 9685 9685 9684 9682 9681 9680 9681 9684 9688 9693 9698 9701 9702
2302.1074 9701 9699 9696 9693 9689 9686 9682 9680 9678 9676 9674 9671 9667
2308.3750 9664 9662 9663 9666 9670 9674 9676 9676 9672 9664 9655 9647 9643
2314.6423 9643 9649 9658 9667 9674 9677 9675 9667 9656 9646 9641 9641 9646
2320.9099 9650 9650 9644 9633 9622 9618 9622 9635 9650 9664 9674 9679 9682
2327.1775 9684 9688 9694 9699 9701 9698 9690 9684 9682 9688 9701 9714 9723
2333.4451 9724 9719 9711 9704 9700 9697 9691 9679 9665 9652 9646 9650 9665
2339.7124 9687 9709 9727 9737 9737 9731 9721 9711 9704 9701 9704 9711 9719
2345.9800 9725 9727 9724 9717 9708 9700 9695 9691 9691 9693 9697 9703 9709
2352.2476 9715 9721 9726 9729 9730 9726 9717 9699 9674 9643 9612 9585 9568
2358.5151 9564 9576 9604 9644 9688 9724 9740 9736 9720 9703 9694 9693 9696
2364.7825 9698 9696 9695 9698 9705 9713 9717 9716 9714 9714 9719 9723 9723
2371.0500 9714 9699 9686 9680 9686 9701 9722 9739 9750 9752 9747 9740 9733
2377.3176 9727 9723 9720 9718 9717 9717 9718 9718 9718 9717 9715 9713 9713
2383.5852 9716 9719 9723 9725 9725 9723 9720 9718 9716 9716 9717 9720 9723
2389.8525 9728 9733 9736 9737 9735 9730 9723 9716 9709 9704 9701 9701 9703
2396.1201 9707 9711 9713 9714 9713 9709 9705 9701 9698 9697 9696 9697 9699
2402.3877 9704 9709 9714 9717 9716 9712 9706 9701 9698 9697 9698 9699 9699
2408.6553 9697 9694 9692 9690 9689 9689 9690 9692 9694 9697 9698 9699 9697
2414.9226 9693 9688 9684 9680 9677 9675 9674 9672 9671 9671 9673 9676 9680
2421.1902 9684 9686 9685 9682 9678 9675 9674 9673 9674 9676 9678 9681 9683
2427.4578 9684 9683 9680 9676 9674 9672 9672 9673 9673 9673 9673 9674 9677
2433.7253 9679 9682 9682 9680 9677 9673 9670 9670 9671 9674 9678 9679 9677
2439.9927 9670 9661 9654 9650 9652 9660 9670 9678 9683 9682 9677 9671 9664
2446.2603 9660 9659 9662 9667 9673 9677 9680 9681 9679 9675 9670 9665 9660
2452.5278 9655 9652 9650 9652 9656 9662 9669 9673 9673 9670 9664 9657 9651
2458.7954 9649 9651 9655 9662 9667 9671 9672 9672 9671 9669 9666 9664 9660
2465.0627 9656 9654 9654 9657 9662 9666 9668 9666 9661 9653 9645 9639 9637
2471.3303 9639 9643 9647 9651 9653 9653 9652 9650 9649 9650 9653 9656 9659
2477.5979 9660 9658 9654 9648 9642 9638 9635 9635 9637 9640 9642 9643 9643
2483.8655 9641 9639 9638 9637 9638 9639 9640 9638 9635 9629 9623 9618 9616
2490.1328 9618 9625 9635 9643 9648 9647 9640 9629 9619 9611 9608 9609 9612
2496.4004 9615 9619 9620 9621 9622 9622 9623 9623 9621 9617 9611 9603 9595
2502.6680 9588 9584 9582 9582 9585 9590 9596 9602 9606 9608 9606 9602 9597
2508.9355 9593 9592 9592 9593 9595 9595 9593 9589 9585 9581 9577 9573 9570
2515.2029 9568 9568 9569 9572 9574 9575 9572 9564 9552 9541 9532 9527 9526
2521.4705 9528 9529 9528 9525 9522 9517 9513 9508 9503 9497 9494 9494 9498
2527.7380 9505 9513 9519 9519 9514 9504 9492 9480 9470 9463 9458 9456 9455
2534.0056 9455 9456 9456 9455 9453 9449 9445 9442 9441 9442 9446 9450 9454
2540.2729 9457 9460 9461 9460 9457 9453 9451 9452 9457 9466 9476 9485 9491
2546.5405 9493 9494 9493 9493 9494 9495 9496 9499 9504 9509 9514 9519 9524
2552.8081 9529 9533 9538 9542 9543 9541 9536 9530 9524 9519 9516 9513 9510
2559.0757 9507 9505 9503 9502 9501 9500 9500 9499 9499 9498 9497 9497 9498
2565.3430 9498 9499 9499 9498 9499 9499 9500 9499 9497 9493 9488 9485 9485
2571.6106 9487 9490 9494 9495 9494 9490 9484 9476 9469 9464 9461 9462 9464
2577.8782 9467 9469 9469 9466 9462 9458 9454 9451 9449 9448 9445 9443 9441
2584.1458 9439 9437 9434 9432 9429 9426 9422 9418 9414 9411 9408 9405 9402
2590.4133 9398 9395 9393 9392 9392 9391 9388 9384 9379 9374 9371 9370 9370
2596.6807 9371 9373 9374 9374 9373 9371 9368 9365 9361 9356 9352 9348 9346
2602.9482 9345 9344 9343 9341 9337 9331 9326 9321 9317 9314 9311 9307 9303
2609.2158 9298 9293 9289 9285 9281 9279 9278 9277 9278 9279 9280 9281 9279
2615.4834 9276 9272 9269 9267 9268 9270 9272 9273 9270 9266 9261 9256 9253
2621.7507 9253 9254 9255 9254 9252 9248 9244 9240 9237 9234 9231 9227 9223
2628.0183 9218 9215 9212 9211 9209 9206 9202 9196 9189 9183 9177 9172 9169
2634.2859 9165 9163 9161 9158 9155 9151 9146 9141 9136 9130 9124 9118 9112
2640.5535 9105 9098 9091 9084 9078 9073 9068 9065 9063 9060 9057 9053 9046
2646.8208 9038 9029 9020 9013 9007 9002 8998 8993 8987 8979 8970 8962 8955
2653.0884 8949 8943 8937 8930 8923 8917 8912 8908 8904 8900 8895 8890 8886
2659.3560 8883 8881 8879 8877 8876 8876 8876 8877 8879 8880 8880 8879 8878
2665.6235 8877 8878 8881 8885 8890 8894 8897 8897 8897 8896 8895 8893 8892
2671.8909 8891 8890 8889 8889 8888 8888 8888 8889 8892 8895 8897 8899 8898
2678.1584 8896 8894 8892 8892 8894 8896 8898 8898 8897 8895 8893 8891 8890
2684.4260 8890 8889 8890 8890 8890 8889 8889 8887 8885 8882 8877 8873 8868
2690.6936 8864 8861 8859 8858 8857 8855 8851 8847 8843 8838 8833 8828 8824
2696.9609 8821 8816 8811 8805 8798 8792 8786 8782 8778 8774 8769 8763 8755
2703.2285 8749 8744 8740 8738 8736 8734 8732 8729 8727 8724 8721 8717 8713
2709.4961 8709 8707 8706 8706 8707 8707 8705 8703 8701 8700 8700 8701 8701
2715.7637 8701 8700 8698 8697 8695 8694 8692 8690 8688 8686 8684 8681 8678
2722.0310 8675 8671 8667 8663 8659 8653 8646 8638 8631 8625 8620 8615 8611
2728.2986 8605 8597 8588 8579 8570 8562 8556 8551 8546 8539 8530 8520 8508
2734.5662 8495 8483 8472 8462 8453 8445 8437 8430 8423 8415 8407 8399 8390
2740.8337 8380 8371 8362 8354 8345 8337 8329 8322 8316 8311 8306 8302 8297
2747.1011 8292 8288 8285 8285 8285 8285 8285 8283 8281 8278 8276 8275 8275
2753.3687 8276 8278 8279 8280 8279 8277 8275 8272 8269 8268 8268 8269 8271
2759.6362 8274 8278 8281 8283 8284 8283 8280 8277 8273 8270 8268 8265 8263
2765.9038 8261 8261 8260 8261 8261 8261 8260 8259 8258 8256 8254 8253 8252
2772.1711 8252 8252 8251 8248 8243 8238 8234 8229 8226 8223 8220 8217 8213
2778.4387 8210 8207 8205 8202 8198 8193 8187 8181 8176 8172 8169 8166 8163
2784.7063 8158 8153 8148 8143 8138 8133 8128 8123 8117 8112 8107 8102 8097
2790.9739 8091 8086 8080 8076 8072 8069 8066 8062 8058 8054 8051 8047 8042
2797.2412 8036 8028 8019 8012 8006 8003 8002 8000 7997 7992 7986 7980 7973
2803.5088 7968 7964 7960 7956 7951 7947 7943 7939 7935 7933 7930 7927 7924
2809.7764 7920 7916 7912 7908 7903 7897 7891 7884 7878 7873 7869 7865 7861
2816.0439 7857 7854 7852 7851 7849 7847 7842 7836 7828 7820 7812 7805 7800
2822.3113 7796 7793 7790 7786 7782 7778 7774 7770 7764 7758 7751 7744 7737
2828.5789 7731 7727 7723 7719 7716 7713 7709 7704 7697 7688 7678 7669 7660
2834.8464 7653 7647 7641 7634 7626 7618 7609 7601 7593 7586 7578 7572 7565
2841.1140 7559 7551 7542 7531 7519 7505 7492 7479 7468 7459 7450 7442 7434
2847.3813 7425 7416 7406 7396 7385 7375 7365 7356 7347 7339 7331 7323 7315
2853.6489 7306 7299 7293 7290 7288 7287 7286 7284 7281 7278 7276 7276 7276
2859.9165 7276 7277 7278 7279 7280 7281 7281 7280 7279 7279 7279 7279 7281
2866.1841 7283 7285 7288 7291 7294 7296 7297 7296 7292 7287 7281 7275 7269
2872.4514 7265 7263 7261 7260 7258 7256 7254 7252 7249 7246 7244 7241 7237
2878.7190 7233 7230 7227 7224 7222 7221 7218 7215 7210 7205 7199 7193 7189
2884.9866 7186 7184 7183 7182 7180 7177 7174 7171 7169 7168 7167 7167 7166
2891.2542 7164 7163 7163 7163 7163 7164 7166 7169 7172 7175 7178 7179 7178
2897.5215 7176 7173 7168 7162 7156 7149 7143 7137 7132 7127 7123 7120 7116
2903.7891 7111 7105 7098 7090 7082 7074 7067 7061 7055 7049 7044 7038 7033
2910.0566 7027 7021 7017 7012 7008 7005 7002 6999 6996 6994 6993 6990 6985
2916.3242 6978 6969 6960 6952 6946 6941 6937 6934 6930 6927 6924 6920 6917
2922.5916 6914 6911 6907 6903 6899 6894 6889 6882 6876 6870 6865 6862 6859
2928.8591 6856 6853 6849 6845 6840 6836 6833 6829 6824 6820 6816 6814 6814
2935.1267 6817 6821 6827 6832 6836 6839 6841 6841 6841 6840 6840 6840 6841
2941.3943 6842 6842 6843 6844 6845 6847 6849 6852 6855 6859 6863 6867 6870
2947.6616 6871 6871 6872 6873 6875 6879 6884 6890 6893 6895 6894 6892 6890
2953.9292 6888 6887 6887 6886 6884 6882 6880 6878 6877 6879 6883 6889 6895
2960.1968 6899 6900 6899 6897 6893 6891 6890 6891 6892 6894 6894 6894 6893
2966.4644 6892 6891 6890 6890 6888 6886 6882 6879 6876 6874 6872 6870 6867
2972.7317 6862 6857 6851 6844 6835 6825 6813 6801 6791 6785 6782 6784 6788
2978.9993 6795 6803 6813 6822 6829 6833 6834 6833 6832 6833 6837 6843 6850
2985.2668 6858 6866 6872 6877 6882 6885 6889 6893 6897 6902 6908 6914 6921
2991.5344 6928 6935 6942 6947 6952 6956 6960 6967 6977 6990 7006 7023 7040
2997.8018 7054 7066 7074 7080 7083 7086 7089 7093 7099 7106 7113 7120 7123
3004.0693 7126 7128 7132 7140 7149 7159 7167 7172 7175 7178 7181 7185 7189
3010.3369 7192 7192 7191 7188 7186 7186 7187 7189 7192 7196 7199 7201 7202
3016.6045 7201 7198 7195 7190 7187 7184 7183 7184 7187 7191 7194 7195 7194
3022.8718 7192 7190 7188 7186 7185 7183 7180 7177 7173 7169 7165 7161 7157
3029.1394 7153 7150 7149 7149 7150 7150 7148 7142 7136 7131 7129 7130 7133
3035.4070 7136 7138 7137 7134 7130 7125 7121 7118 7115 7111 7109 7106 7104
3041.6746 7102 7101 7100 7099 7097 7094 7092 7091 7090 7089 7089 7087 7084
3047.9419 7080 7074 7069 7064 7060 7057 7056 7055 7053 7051 7047 7042 7036
3054.2095 7031 7027 7025 7024 7025 7026 7024 7020 7013 7006 6999 6994 6993
3060.4771 6994 6996 6997 6996 6995 6992 6990 6988 6985 6982 6978 6972 6966
3066.7446 6959 6952 6947 6943 6940 6938 6937 6935 6934 6931 6928 6925 6921
3073.0120 6916 6909 6903 6896 6891 6888 6887 6886 6886 6884 6880 6877 6874
3079.2795 6873 6873 6871 6868 6860 6849 6837 6826 6817 6812 6811 6813 6817
3085.5471 6821 6824 6825 6823 6817 6810 6801 6793 6785 6778 6774 6772 6772
3091.8147 6773 6774 6774 6773 6770 6768 6766 6763 6761 6757 6751 6745 6737
3098.0820 6729 6722 6717 6715 6716 6718 6721 6722 6720 6717 6713 6709 6705
3104.3496 6700 6694 6686 6679 6672 6667 6664 6663 6663 6664 6664 6665 6665
3110.6172 6665 6666 6666 6664 6661 6655 6647 6640 6635 6631 6630 6630 6631
3116.8848 6633 6636 6639 6641 6641 6637 6631 6626 6624 6626 6631 6636 6639
3123.1521 6639 6637 6634 6632 6632 6633 6635 6640 6644 6647 6647 6644 6640
3129.4197 6635 6633 6633 6633 6633 6632 6631 6632 6636 6642 6650 6657 6662
3135.6873 6666 6668 6668 6668 6668 6668 6669 6669 6670 6672 6673 6676 6679
3141.9548 6682 6686 6689 6691 6695 6701 6708 6715 6722 6727 6730 6730 6730
3148.2222 6730 6732 6734 6736 6737 6737 6738 6742 6748 6756 6763 6769 6772
3154.4897 6774 6775 6778 6782 6787 6793 6799 6806 6812 6816 6819 6821 6822
3160.7573 6823 6825 6828 6831 6835 6837 6840 6842 6845 6850 6856 6863 6870
3167.0249 6876 6879 6881 6883 6884 6888 6892 6897 6901 6903 6904 6903 6904
3173.2922 6906 6911 6918 6925 6931 6935 6937 6937 6938 6939 6943 6948 6954
3179.5598 6959 6963 6966 6968 6970 6971 6972 6972 6973 6973 6973 6972 6973
3185.8274 6975 6979 6983 6988 6993 6997 7001 7004 7006 7007 7007 7007 7007
3192.0950 7008 7011 7016 7021 7027 7032 7035 7038 7040 7042 7045 7049 7053
3198.3623 7055 7057 7058 7059 7061 7063 7064 7065 7066 7066 7066 7068 7070
3204.6299 7073 7075 7078 7082 7088 7094 7100 7105 7107 7107 7108 7109 7112
3210.8975 7116 7119 7122 7123 7123 7123 7124 7124 7124 7123 7121 7118 7116
3217.1650 7117 7122 7130 7141 7151 7159 7164 7167 7169 7171 7174 7177 7180
3223.4324 7183 7185 7186 7186 7187 7187 7187 7188 7190 7192 7193 7195 7196
3229.7000 7199 7201 7204 7207 7210 7213 7217 7222 7229 7236 7244 7251 7257
3235.9675 7262 7266 7269 7271 7272 7272 7272 7272 7272 7271 7269 7268 7266
3242.2351 7266 7268 7272 7278 7285 7292 7299 7303 7306 7308 7310 7313 7317
3248.5024 7320 7324 7326 7328 7331 7333 7335 7335 7334 7332 7331 7331 7335
3254.7700 7340 7348 7355 7361 7365 7367 7369 7369 7370 7371 7373 7376 7379
3261.0376 7383 7387 7391 7394 7396 7398 7401 7404 7409 7413 7416 7416 7415
3267.3052 7413 7411 7411 7413 7416 7421 7426 7430 7432 7434 7434 7436 7440
3273.5725 7447 7455 7463 7470 7473 7475 7476 7476 7476 7476 7477 7479 7483
3279.8401 7488 7494 7500 7505 7508 7512 7517 7523 7530 7537 7543 7546 7548
3286.1077 7548 7546 7545 7543 7541 7540 7539 7537 7537 7537 7539 7543 7548
3292.3752 7553 7557 7560 7564 7568 7573 7579 7584 7588 7590 7591 7590 7590
3298.6426 7590 7591 7591 7592 7591 7589 7586 7585 7585 7588 7594 7601 7608
3304.9102 7613 7616 7615 7613 7611 7612 7615 7621 7627 7633 7636 7636 7635
3311.1777 7633 7632 7634 7640 7649 7658 7666 7671 7673 7673 7671 7669 7667
3317.4453 7666 7666 7667 7668 7668 7668 7668 7669 7672 7676 7681 7685 7690
3323.7126 7694 7698 7701 7704 7705 7705 7705 7706 7709 7714 7719 7724 7727
3329.9802 7729 7730 7732 7736 7740 7744 7748 7750 7750 7750 7749 7749 7749
3336.2478 7751 7755 7759 7763 7766 7768 7770 7772 7777 7783 7790 7796 7802
3342.5154 7805 7806 7807 7808 7810 7812 7814 7816 7817 7817 7817 7817 7819
3348.7827 7822 7826 7830 7835 7839 7845 7850 7857 7864 7870 7875 7880 7884
3355.0503 7888 7892 7895 7896 7897 7896 7896 7897 7901 7908 7915 7922 7928
3361.3179 7932 7934 7936 7938 7940 7944 7948 7953 7960 7968 7976 7985 7991
3367.5854 7996 7999 8002 8004 8009 8015 8021 8028 8033 8036 8039 8042 8045
3373.8528 8049 8053 8057 8063 8071 8080 8090 8098 8103 8105 8106 8108 8114
3380.1204 8123 8133 8144 8152 8156 8159 8160 8161 8165 8170 8176 8184 8192
3386.3879 8199 8206 8210 8212 8213 8214 8217 8222 8230 8240 8250 8260 8268
3392.6555 8274 8280 8285 8289 8293 8297 8302 8307 8313 8319 8324 8329 8333
3398.9229 8339 8348 8358 8370 8382 8392 8401 8408 8414 8417 8419 8420 8421
3405.1904 8422 8426 8433 8441 8451 8461 8469 8476 8481 8485 8488 8491 8495
3411.4580 8500 8505 8512 8520 8529 8537 8545 8552 8557 8559 8560 8559 8557
3417.7256 8556 8558 8562 8569 8578 8587 8595 8602 8607 8611 8614 8617 8620
3423.9929 8624 8628 8632 8636 8638 8640 8642 8643 8644 8645 8646 8648 8653
3430.2605 8660 8667 8673 8677 8678 8678 8678 8679 8682 8686 8689 8690 8691
3436.5281 8691 8691 8692 8694 8697 8700 8702 8705 8708 8713 8719 8726 8732
3442.7957 8738 8740 8740 8737 8732 8727 8725 8728 8736 8745 8755 8761 8764
3449.0630 8766 8767 8767 8768 8767 8767 8767 8770 8775 8782 8789 8797 8804
3455.3306 8811 8819 8827 8835 8843 8851 8859 8867 8875 8882 8887 8889 8891
3461.5981 8893 8895 8897 8900 8902 8905 8908 8910 8914 8917 8920 8923 8925
3467.8657 8927 8928 8929 8931 8934 8939 8946 8953 8959 8965 8970 8976 8980
3474.1331 8983 8982 8978 8973 8969 8969 8974 8982 8991 8999 9003 9005 9006
3480.4006 9006 9007 9010 9015 9020 9023 9026 9026 9027 9028 9030 9034 9040
3486.6682 9047 9055 9062 9068 9072 9075 9078 9081 9084 9088 9090 9090 9089
3492.9358 9088 9089 9093 9099 9107 9114 9120 9124 9127 9127 9125 9122 9119
3499.2031 9119 9122 9130 9142 9153 9163 9169 9171 9171 9169 9167 9166 9167
3505.4707 9170 9176 9184 9191 9195 9196 9192 9187 9182 9182 9186 9195 9206
3511.7383 9218 9228 9235 9238 9239 9240 9243 9248 9255 9261 9266 9268 9269
3518.0059 9270 9271 9273 9273 9273 9273 9272 9272 9275 9282 9292 9303 9311
3524.2732 9316 9316 9312 9307 9304 9306 9315 9328 9344 9357 9366 9371 9372
3530.5408 9372 9373 9376 9381 9387 9393 9400 9406 9412 9418 9423 9427 9429
3536.8083 9431 9434 9440 9447 9454 9461 9466 9471 9477 9484 9492 9500 9509
3543.0759 9517 9525 9534 9542 9547 9547 9544 9541 9541 9546 9555 9564 9571
3549.3433 9573 9573 9572 9574 9580 9589 9599 9608 9614 9621 9628 9636 9643
3555.6108 9647 9646 9641 9635 9630 9631 9636 9646 9656 9666 9674 9680 9686
3561.8784 9692 9699 9705 9710 9712 9713 9712 9710 9706 9702 9698 9698 9702
3568.1460 9708 9714 9718 9720 9720 9722 9726 9734 9745 9756 9765 9772 9776
3574.4136 9777 9775 9772 9768 9766 9767 9772 9780 9788 9793 9795 9794 9792
3580.6809 9790 9791 9794 9800 9808 9816 9823 9827 9829 9828 9826 9823 9820
3586.9485 9818 9819 9822 9829 9837 9845 9851 9855 9854 9851 9847 9844 9845
3593.2161 9850 9859 9868 9875 9878 9877 9874 9871 9871 9872 9873 9873 9871
3599.4836 9871 9876 9887 9903 9920 9932 9935 9931 9921 9911 9904 9902 9904
3605.7510 9909 9915 9918 9917 9912 9904 9899 9899 9905 9915 9928 9940 9950
3612.0186 9955 9953 9947 9941 9940 9944 9951 9958 9961 9958 9950 9939 9928
3618.2861 9921 9922 9930 9942 9953 9961 9967 9973 9978 9986 9995 10004 10010
3624.5537 10012 10007 9997 9984 9969 9955 9945 9942 9950 9966 9980 9988 9993
3630.8210 9997 10001 10006 10009 10012 10013 10014 10017 10021 10025 10027
3636.1245 10027 10024 10021 10021 10025 10032 10039 10043 10042 10037 10031
3641.4277 10028 10029 10034 10039 10042 10042 10038 10033 10027 10022 10021
3646.7310 10022 10025 10026 10023 10018 10016 10024 10041 10058 10068 10070
3652.0342 10066 10061 10058 10056 10057 10060 10062 10065 10066 10068 10069
3657.3376 10068 10066 10063 10061 10061 10065 10071 10079 10084 10087 10087
3662.6409 10085 10084 10083 10084 10086 10088 10089 10089 10090 10091 10093
3667.9441 10095 10094 10090 10082 10075 10072 10075 10081 10085 10086 10084
3673.2473 10076 10061 10040 10023 10027 10053 10076 10088 10092 10094 10096
3678.5508 10100 10105 10109 10109 10107 10105 10106 10109 10113 10114 10111
3683.8540 10104 10097 10091 10087 10086 10085 10084 10083 10083 10085 10087
3689.1572 10088 10089 10091 10094 10098 10104 10110 10114 10117 10118 10117
3694.4604 10115 10112 10110 10111 10115 10121 10127 10131 10131 10129 10125
3699.7639 10120 10116 10114 10115 10118 10121 10121 10119 10114 10108 10102
3705.0671 10099 10099 10102 10106 10111 10115 10117 10119 10121 10121 10122
3710.3704 10123 10125 10128 10130 10128 10122 10114 10108 10105 10106 10111
3715.6736 10117 10123 10126 10128 10128 10129 10131 10134 10136 10136 10133
3720.9771 10129 10126 10125 10127 10130 10133 10134 10134 10134 10135 10136
3726.2803 10137 10135 10131 10127 10124 10125 10129 10133 10135 10131 10121
3731.5835 10109 10099 10096 10097 10098 10096 10090 10082 10081 10089 10103
3736.8867 10115 10123 10124 10120 10113 10106 10102 10103 10108 10115 10123
3742.1902 10129 10135 10143 10158 10176 10185 10179 10167 10153 10141 10130
3747.4934 10120 10111 10105 10106 10111 10117 10120 10122 10123 10126 10129
3752.7966 10131 10128 10122 10114 10108 10106 10112 10126 10143 10157 10164
3758.0999 10161 10151 10137 10128 10126 10130 10135 10139 10140 10140 10140
3763.4033 10138 10136 10133 10129 10126 10123 10123 10125 10127 10129 10131
3768.7065 10133 10134 10134 10133 10133 10135 10140 10145 10150 10151 10149
3774.0098 10142 10135 10128 10126 10127 10130 10133 10134 10133 10129 10125
3779.3130 10122 10120 10121 10124 10128 10132 10136 10140 10142 10143 10144
3784.6165 10144 10144 10144 10142 10138 10135 10132 10130 10129 10130 10131
3789.9197 10135 10140 10146 10151 10154 10153 10148 10139 10131 10123 10118
3795.2229 10116 10116 10118 10122 10125 10127 10128 10128 10127 10126 10127
3800.5261 10136 10151 10168 10176 10175 10169 10162 10154 10147 10140 10134
3805.8296 10128 10124 10124 10126 10127 10127 10126 10126 10128 10132 10139
3811.1328 10146 10151 10153 10152 10150 10149 10149 10151 10154 10154 10150
3816.4360 10143 10137 10133 10129 10125 10119 10112 10104 10098 10101 10111
3821.7393 10122 10130 10136 10141 10146 10150 10153 10153 10150 10144 10139
3827.0427 10135 10134 10134 10133 10130 10127 10124 10123 10125 10131 10138
3832.3459 10142 10144 10143 10141 10141 10141 10141 10139 10135 10129 10124
3837.6492 10125 10133 10145 10157 10164 10167 10167 10165 10163 10160 10156
3842.9524 10149 10142 10136 10134 10137 10143 10150 10156 10160 10162 10162
3848.2559 10160 10158 10157 10155 10152 10145 10134 10117 10097 10082 10084
3853.5591 10101 10120 10130 10134 10133 10133 10134 10136 10140 10144 10147
3858.8623 10148 10147 10143 10138 10131 10126 10123 10124 10128 10131 10132
3864.1655 10132 10130 10131 10134 10139 10144 10149 10152 10154 10151 10143
3869.4690 10133 10127 10129 10134 10138 10141 10141 10139 10136 10135 10137
3874.7722 10141 10144 10146 10147 10147 10147 10148 10149 10149 10148 10142
3880.0754 10134 10126 10121 10122 10128 10136 10144 10150 10152 10149 10144
3885.3787 10140 10142 10147 10152 10154 10153 10148 10141 10134 10128 10125
3890.6821 10126 10131 10138 10145 10149 10151 10151 10149 10147 10145 10145
3895.9854 10145 10146 10148 10150 10151 10151 10152 10152 10154 10155 10156
3901.2886 10155 10155 10155 10156 10158 10157 10155 10152 10149 10148 10149
3906.5918 10151 10153 10155 10155 10154 10151 10147 10143 10139 10139 10142
3911.8953 10147 10153 10157 10157 10155 10150 10145 10141 10139 10141 10144
3917.1985 10148 10150 10150 10149 10146 10144 10145 10147 10151 10153 10155
3922.5017 10155 10153 10152 10152 10151 10150 10148 10145 10142 10141 10141
3927.8049 10145 10149 10154 10158 10158 10156 10150 10144 10138 10135 10134
3933.1084 10135 10136 10136 10134 10132 10131 10132 10134 10137 10139 10141
3938.4116 10144 10147 10151 10156 10159 10161 10160 10158 10154 10151 10149
3943.7148 10148 10149 10150 10151 10152 10151 10149 10144 10137 10130 10125
3949.0181 10124 10127 10131 10134 10135 10135 10136 10140 10146 10152 10155
3954.3215 10155 10153 10153 10157 10163 10168 10171 10167 10159 10148 10137
3959.6248 10128 10125 10127 10134 10142 10150 10156 10159 10159 10159 10159
3964.9280 10158 10158 10156 10152 10148 10143 10139 10137 10135 10134 10133
3970.2312 10131 10128 10125 10122 10120 10120 10123 10127 10131 10134 10135
3975.5347 10135 10136 10138 10142 10147 10151 10153 10152 10149 10146 10145
3980.8379 10146 10149 10153 10155 10154 10150 10145 10139 10135 10133 10133
3986.1411 10135 10136 10138 10139 10139 10140 10140 10139 10139 10139 10140
3991.4443 10142 10143 10143 10142 10140 10139 10137 10136 10135 10134 10134
3996.7478 10134 10135 10137 10139 10141 10143 10144 10145
##END= 
