##TITLE= INC195
##JCAMP-DX= 4.24
##DATA TYPE= INFRARED SPECTRUM
##ORIGIN= JASCO
##OWNER= 
##DATE= 22/04/14
##TIME= 12:26:36
##SPECTROMETER/DATA SYSTEM= 
##RESOLUTION= 
##DELTAX=   0.48211674
##XUNITS= 1/CM
##YUNITS= TRANSMITTANCE
##XFACTOR= 1.00000
##YFACTOR= 0.0001
##FIRSTX=   599.7532
##LASTX=  4000.1226
##NPOINTS=     7054
##FIRSTY=      0.81835
##MAXY=      1.03941
##MINY=      0.75311
##XYDATA= (X++(Y..Y))
599.7532 8184 8243 8302 8352 8387 8404 8407 8403 8400 8404 8411 8418 8421 8418
606.5029 8412 8406 8397 8379 8344 8289 8218 8139 8063 7997 7938 7884 7828 7768
613.2525 7705 7645 7592 7554 7532 7531 7556 7607 7682 7766 7842 7895 7920 7928
620.0021 7933 7952 7991 8046 8103 8147 8170 8175 8166 8150 8134 8125 8132 8162
626.7518 8217 8289 8363 8421 8454 8461 8454 8449 8454 8468 8482 8485 8466 8422
633.5014 8360 8291 8226 8177 8149 8142 8154 8180 8218 8266 8325 8396 8475 8559
640.2510 8640 8712 8764 8788 8781 8747 8699 8654 8625 8620 8634 8657 8679 8690
647.0007 8684 8663 8634 8608 8594 8599 8620 8647 8675 8699 8721 8744 8767 8788
653.7503 8803 8809 8813 8823 8847 8888 8939 8989 9024 9032 9012 8971 8923 8884
660.4999 8860 8848 8833 8804 8761 8720 8701 8713 8749 8789 8814 8818 8805 8780
667.2496 8738 8650 8484 8314 8224 8200 8212 8247 8302 8373 8463 8576 8716 8885
673.9992 9073 9258 9418 9533 9603 9638 9655 9661 9650 9613 9538 9420 9262 9069
680.7488 8860 8671 8559 8580 8770 9112 9535 9943 10245 10394 10387 10249 10014
687.0164 9717 9394 9091 8858 8734 8732 8830 8984 9143 9262 9321 9319 9277 9226
693.7660 9195 9201 9241 9297 9347 9381 9400 9414 9434 9464 9499 9533 9559 9572
700.5156 9572 9556 9528 9491 9451 9414 9389 9376 9375 9382 9390 9397 9402 9404
707.2653 9403 9398 9389 9377 9361 9342 9320 9295 9267 9243 9230 9235 9257 9288
714.0149 9318 9335 9337 9327 9312 9295 9279 9260 9236 9208 9179 9156 9143 9141
720.7645 9148 9160 9177 9196 9219 9242 9262 9273 9273 9261 9241 9216 9188 9160
727.5142 9137 9122 9117 9126 9146 9175 9208 9241 9274 9305 9333 9358 9374 9378
734.2638 9370 9354 9340 9333 9339 9353 9371 9388 9403 9417 9432 9448 9461 9467
741.0134 9466 9463 9464 9472 9487 9501 9507 9500 9480 9452 9426 9408 9403 9409
747.7631 9422 9437 9450 9464 9486 9524 9580 9644 9698 9724 9711 9667 9611 9563
754.5127 9535 9526 9527 9527 9524 9523 9530 9551 9580 9609 9632 9649 9667 9693
761.2623 9729 9773 9817 9852 9874 9884 9887 9886 9885 9883 9878 9870 9858 9841
768.0120 9819 9794 9762 9722 9673 9614 9550 9486 9430 9388 9361 9346 9340 9336
774.7616 9331 9327 9326 9330 9340 9353 9366 9374 9377 9374 9368 9362 9359 9361
781.5112 9369 9384 9403 9423 9441 9454 9462 9467 9471 9475 9478 9479 9477 9471
788.2609 9464 9456 9448 9439 9429 9420 9413 9409 9410 9416 9424 9434 9442 9448
795.0105 9449 9443 9431 9417 9405 9398 9398 9403 9409 9415 9418 9418 9415 9411
801.7601 9405 9400 9397 9396 9397 9397 9396 9392 9384 9376 9370 9368 9372 9381
808.5098 9392 9403 9412 9420 9429 9442 9461 9486 9513 9537 9555 9566 9572 9579
815.2594 9591 9608 9628 9647 9663 9678 9693 9709 9724 9737 9743 9745 9744 9742
822.0090 9742 9743 9748 9754 9763 9773 9779 9781 9777 9771 9766 9764 9765 9765
828.7587 9758 9741 9716 9686 9656 9628 9604 9581 9559 9537 9515 9495 9478 9468
835.5083 9465 9467 9469 9468 9457 9434 9397 9347 9285 9216 9147 9086 9041 9018
842.2579 9016 9033 9064 9105 9156 9216 9285 9358 9430 9494 9548 9590 9625 9657
849.0076 9691 9727 9762 9791 9812 9825 9832 9837 9842 9845 9844 9836 9821 9802
855.7572 9783 9770 9765 9768 9779 9796 9818 9840 9860 9874 9883 9887 9889 9894
862.5068 9903 9917 9933 9951 9965 9975 9979 9977 9970 9963 9960 9961 9968 9979
869.2565 9989 9996 9999 10001 10002 10004 10005 10005 10003 10000 9998 10000
875.0419 10006 10017 10030 10042 10052 10055 10052 10043 10031 10020 10013
880.3452 10012 10017 10024 10030 10033 10031 10022 10006 9984 9957 9926 9894
886.1306 9860 9823 9781 9731 9675 9616 9557 9502 9452 9406 9363 9325 9295 9275
892.8802 9269 9277 9299 9333 9375 9424 9474 9522 9566 9604 9636 9660 9675 9681
899.6298 9679 9671 9658 9642 9624 9604 9583 9563 9543 9524 9505 9487 9472 9460
906.3795 9454 9456 9465 9482 9506 9536 9571 9609 9649 9690 9731 9770 9808 9842
913.1291 9873 9902 9928 9953 9976 9996 10013 10025 10034 10040 10045 10049
918.9145 10053 10059 10066 10073 10081 10089 10094 10098 10098 10097 10094
924.2178 10091 10091 10094 10103 10115 10128 10139 10145 10145 10142 10136
929.5211 10132 10127 10124 10120 10117 10117 10118 10124 10131 10138 10144
934.8243 10147 10147 10143 10136 10129 10122 10118 10115 10114 10114 10112
940.1276 10105 10093 10074 10049 10023 9996 9973 9956 9946 9944 9951 9964 9982
946.3951 10001 10018 10031 10041 10047 10052 10052 10045 10028 10000 9967 9934
952.1805 9912 9906 9916 9940 9970 10003 10034 10061 10085 10103 10116 10124
957.9659 10128 10128 10124 10116 10103 10087 10071 10057 10049 10043 10035
963.2692 10021 10001 9975 9949 9923 9900 9879 9858 9838 9822 9809 9802 9800
969.5367 9805 9816 9832 9853 9874 9893 9909 9922 9935 9951 9972 9996 10019
975.8043 10038 10051 10058 10061 10062 10064 10066 10070 10073 10075 10075
981.1075 10073 10071 10069 10070 10073 10078 10081 10080 10075 10065 10053
986.4108 10040 10026 10012 9998 9987 9979 9975 9976 9978 9981 9980 9974 9963
992.6783 9949 9932 9914 9895 9875 9854 9831 9807 9781 9755 9727 9699 9670 9642
999.4280 9613 9586 9560 9539 9522 9512 9511 9520 9538 9561 9586 9610 9629 9644
1006.1776 9657 9669 9683 9698 9716 9735 9756 9777 9796 9811 9821 9825 9824
1012.4451 9823 9821 9821 9820 9816 9806 9789 9768 9746 9727 9716 9714 9720
1018.7126 9733 9748 9763 9777 9790 9803 9816 9830 9842 9851 9856 9855 9848
1024.9802 9835 9817 9794 9771 9747 9724 9700 9676 9649 9624 9604 9593 9591
1031.2477 9598 9610 9624 9638 9650 9660 9670 9678 9685 9690 9694 9700 9707
1037.5153 9717 9727 9734 9736 9730 9715 9694 9668 9642 9620 9604 9598 9601
1043.7827 9609 9621 9633 9645 9657 9673 9693 9715 9735 9747 9749 9744 9735
1050.0503 9729 9728 9731 9735 9736 9731 9721 9711 9703 9700 9700 9702 9704
1056.3177 9704 9703 9702 9699 9696 9691 9685 9678 9669 9657 9643 9626 9608
1062.5853 9591 9579 9575 9579 9592 9610 9631 9655 9679 9705 9731 9754 9772
1068.8528 9785 9791 9795 9799 9803 9807 9809 9806 9797 9780 9753 9717 9671
1075.1204 9617 9556 9491 9426 9363 9307 9261 9231 9219 9231 9268 9325 9396
1081.3878 9471 9538 9590 9625 9646 9659 9666 9671 9675 9674 9670 9661 9648
1087.6554 9632 9613 9593 9571 9548 9527 9506 9488 9475 9469 9469 9475 9484
1093.9229 9493 9500 9506 9512 9519 9526 9532 9536 9539 9542 9547 9553 9561
1100.1904 9567 9572 9577 9584 9594 9609 9625 9641 9655 9669 9682 9695 9708
1106.4579 9720 9730 9739 9746 9751 9753 9752 9748 9743 9739 9735 9732 9729
1112.7255 9727 9724 9721 9718 9714 9709 9703 9696 9692 9689 9688 9687 9687
1118.9929 9687 9688 9688 9689 9689 9688 9686 9682 9678 9673 9668 9662 9657
1125.2605 9653 9650 9647 9645 9643 9642 9642 9645 9649 9654 9656 9654 9645
1131.5280 9631 9614 9597 9586 9581 9581 9584 9584 9578 9567 9551 9535 9521
1137.7955 9511 9502 9494 9487 9480 9475 9472 9469 9466 9461 9453 9441 9427
1144.0630 9413 9399 9388 9379 9372 9365 9359 9351 9343 9334 9325 9315 9304
1150.3306 9291 9275 9258 9239 9220 9203 9186 9173 9162 9154 9150 9150 9153
1156.5980 9160 9171 9186 9205 9228 9254 9282 9311 9341 9371 9399 9427 9453
1162.8656 9478 9503 9526 9549 9571 9590 9607 9621 9633 9642 9650 9655 9660
1169.1331 9664 9669 9675 9683 9690 9697 9701 9701 9700 9695 9689 9682 9674
1175.4006 9667 9662 9658 9657 9657 9656 9655 9652 9648 9645 9642 9639 9636
1181.6681 9632 9627 9621 9614 9607 9600 9593 9587 9581 9575 9568 9559 9546
1187.9357 9530 9512 9493 9473 9454 9434 9414 9391 9368 9347 9331 9324 9329
1194.2031 9347 9375 9411 9449 9487 9523 9554 9580 9603 9621 9635 9646 9654
1200.4707 9658 9658 9657 9655 9653 9652 9653 9654 9656 9659 9661 9663 9664
1206.7382 9662 9659 9656 9654 9655 9656 9658 9659 9657 9653 9647 9640 9634
1213.0057 9629 9625 9624 9625 9627 9631 9633 9634 9632 9628 9622 9616 9610
1219.2732 9605 9602 9601 9602 9604 9606 9608 9608 9606 9602 9596 9590 9585
1225.5408 9580 9575 9572 9569 9568 9569 9571 9574 9575 9574 9570 9564 9556
1231.8082 9549 9543 9539 9537 9536 9535 9534 9532 9529 9525 9521 9516 9511
1238.0758 9507 9502 9497 9492 9485 9478 9470 9463 9457 9451 9444 9437 9429
1244.3433 9421 9413 9406 9400 9396 9394 9392 9390 9389 9387 9385 9383 9379
1250.6108 9375 9370 9366 9362 9359 9358 9359 9362 9364 9366 9365 9362 9358
1256.8783 9353 9350 9349 9348 9346 9340 9331 9319 9304 9287 9267 9242 9213
1263.1459 9180 9144 9107 9071 9039 9012 8989 8970 8949 8922 8886 8845 8804
1269.4133 8774 8762 8770 8798 8841 8889 8937 8979 9014 9040 9058 9069 9073
1275.6809 9071 9062 9050 9033 9013 8991 8966 8941 8917 8895 8876 8862 8856
1281.9484 8859 8874 8902 8941 8990 9046 9105 9167 9229 9290 9349 9402 9449
1288.2159 9488 9519 9544 9563 9578 9588 9593 9592 9586 9574 9559 9539 9516
1294.4834 9490 9459 9424 9385 9342 9296 9248 9198 9144 9085 9020 8952 8880
1300.7510 8810 8742 8682 8630 8591 8567 8560 8572 8602 8649 8710 8780 8858
1307.0184 8942 9029 9117 9203 9284 9357 9420 9471 9513 9546 9571 9591 9606
1313.2860 9619 9629 9637 9644 9651 9657 9663 9668 9670 9669 9665 9659 9652
1319.5535 9648 9645 9645 9645 9645 9643 9640 9635 9629 9622 9614 9607 9600
1325.8210 9594 9589 9584 9580 9575 9568 9561 9552 9544 9536 9530 9527 9525
1332.0885 9523 9521 9519 9515 9512 9509 9506 9504 9501 9496 9491 9483 9474
1338.3561 9464 9453 9443 9434 9426 9420 9416 9412 9408 9402 9395 9387 9376
1344.6235 9365 9353 9340 9325 9309 9292 9275 9261 9250 9243 9240 9238 9237
1350.8911 9234 9228 9220 9208 9193 9176 9158 9140 9123 9110 9100 9093 9088
1357.1586 9084 9080 9074 9067 9057 9045 9031 9016 8999 8981 8962 8943 8924
1363.4261 8908 8895 8885 8876 8867 8857 8846 8834 8823 8812 8798 8782 8761
1369.6936 8739 8714 8689 8665 8642 8619 8596 8573 8550 8530 8513 8500 8488
1375.9612 8476 8461 8444 8425 8405 8384 8363 8341 8318 8294 8271 8249 8228
1382.2286 8209 8193 8178 8167 8161 8158 8159 8162 8165 8169 8172 8176 8180
1388.4962 8186 8193 8201 8210 8218 8227 8234 8242 8249 8255 8261 8268 8278
1394.7637 8295 8321 8351 8382 8410 8435 8457 8474 8487 8495 8501 8506 8512
1401.0313 8521 8533 8548 8565 8586 8611 8645 8690 8743 8797 8843 8878 8900
1407.2987 8912 8913 8906 8889 8866 8838 8809 8781 8755 8734 8716 8702 8692
1413.5663 8685 8679 8674 8671 8669 8670 8671 8673 8675 8674 8672 8671 8673
1419.8337 8682 8695 8708 8720 8731 8742 8753 8765 8779 8793 8805 8815 8823
1426.1013 8829 8834 8839 8845 8853 8861 8871 8880 8888 8892 8895 8898 8900
1432.3688 8902 8904 8905 8905 8904 8901 8898 8892 8886 8881 8880 8882 8885
1438.6364 8887 8890 8894 8899 8908 8921 8940 8963 8991 9021 9052 9084 9114
1444.9038 9142 9168 9192 9216 9242 9270 9301 9332 9358 9378 9395 9409 9421
1451.1714 9433 9443 9453 9461 9468 9473 9476 9477 9476 9475 9476 9482 9496
1457.4388 9513 9527 9535 9539 9540 9540 9541 9542 9544 9546 9548 9548 9547
1463.7064 9547 9547 9552 9560 9569 9576 9581 9583 9583 9583 9581 9580 9579
1469.9739 9578 9577 9575 9571 9569 9569 9571 9573 9573 9572 9568 9564 9560
1476.2415 9557 9557 9559 9563 9566 9569 9571 9573 9575 9577 9580 9583 9586
1482.5089 9588 9590 9590 9590 9590 9589 9587 9585 9583 9581 9578 9576 9574
1488.7765 9572 9571 9572 9574 9576 9576 9574 9570 9565 9560 9555 9552 9550
1495.0439 9550 9551 9552 9554 9555 9557 9558 9560 9560 9559 9556 9553 9549
1501.3115 9544 9540 9536 9532 9529 9525 9521 9516 9511 9509 9513 9524 9532
1507.5790 9533 9529 9525 9521 9520 9518 9517 9515 9512 9508 9504 9500 9495
1513.8466 9489 9482 9474 9465 9458 9456 9460 9468 9473 9473 9470 9465 9457
1520.1140 9449 9440 9433 9431 9432 9432 9432 9430 9427 9422 9414 9406 9397
1526.3816 9390 9385 9381 9376 9370 9365 9358 9352 9345 9338 9330 9324 9318
1532.6490 9314 9310 9305 9299 9293 9286 9280 9274 9267 9261 9254 9246 9234
1538.9166 9217 9196 9181 9175 9173 9169 9164 9159 9154 9149 9145 9140 9134
1545.1841 9128 9122 9116 9111 9104 9096 9085 9072 9056 9038 9022 9011 9005
1551.4517 9002 9000 8995 8988 8974 8954 8931 8914 8903 8897 8893 8887 8878
1557.7191 8861 8831 8784 8747 8732 8724 8716 8708 8700 8692 8683 8673 8661
1563.9867 8647 8630 8612 8595 8580 8569 8560 8551 8541 8526 8500 8465 8431
1570.2542 8408 8396 8388 8380 8370 8359 8348 8338 8329 8319 8303 8275 8235
1576.5217 8201 8185 8183 8187 8190 8193 8195 8196 8198 8200 8203 8208 8213
1582.7892 8217 8221 8225 8228 8231 8235 8241 8249 8258 8270 8284 8300 8317
1589.0568 8335 8352 8369 8386 8404 8424 8444 8466 8487 8509 8531 8554 8576
1595.3243 8597 8616 8632 8648 8664 8680 8697 8713 8727 8741 8753 8766 8779
1601.5918 8793 8807 8821 8835 8848 8860 8870 8880 8891 8902 8915 8928 8940
1607.8594 8951 8963 8976 8990 9007 9025 9042 9060 9078 9098 9120 9142 9163
1614.1268 9181 9195 9208 9223 9243 9270 9297 9316 9328 9339 9351 9364 9378
1620.3944 9391 9403 9413 9422 9433 9449 9471 9494 9512 9523 9530 9534 9537
1626.6619 9540 9544 9551 9560 9569 9577 9584 9590 9595 9600 9605 9611 9617
1632.9294 9622 9625 9626 9626 9629 9638 9653 9666 9674 9679 9682 9686 9690
1639.1969 9693 9696 9698 9699 9700 9701 9701 9700 9699 9696 9693 9689 9687
1645.4645 9686 9689 9693 9695 9695 9692 9689 9686 9683 9680 9675 9668 9660
1651.7319 9648 9636 9631 9648 9668 9674 9672 9669 9666 9664 9662 9662 9662
1657.9995 9662 9663 9666 9670 9674 9679 9683 9685 9685 9685 9686 9689 9694
1664.2670 9699 9705 9710 9715 9719 9721 9721 9721 9721 9724 9729 9735 9741
1670.5345 9744 9745 9746 9747 9747 9749 9751 9755 9761 9769 9777 9782 9786
1676.8020 9788 9791 9794 9797 9799 9801 9804 9808 9815 9821 9827 9831 9833
1683.0696 9834 9838 9853 9875 9889 9897 9901 9904 9906 9908 9909 9910 9912
1689.3370 9915 9918 9922 9925 9927 9927 9927 9926 9924 9922 9919 9917 9919
1695.6046 9926 9937 9944 9946 9944 9941 9939 9939 9945 9962 9982 9989 9987
1701.8721 9982 9978 9975 9972 9970 9968 9966 9964 9962 9962 9963 9965 9967
1708.1396 9969 9972 9976 9980 9983 9985 9984 9982 9980 9977 9976 9975 9977
1714.4071 9979 9982 9985 9987 9989 9994 10004 10018 10030 10034 10033 10031
1720.1925 10029 10027 10024 10022 10018 10015 10014 10016 10020 10026 10031
1725.4958 10036 10039 10042 10044 10047 10048 10049 10049 10048 10046 10045
1730.7991 10044 10043 10040 10036 10031 10027 10026 10031 10037 10038 10036
1736.1024 10033 10030 10028 10027 10026 10023 10020 10014 10010 10007 10006
1741.4056 10007 10010 10012 10015 10016 10015 10012 10009 10005 10002 10000
1746.7090 9997 9994 9991 9990 9991 9993 9995 9995 9993 9990 9988 9986 9985
1752.9764 9984 9983 9981 9981 9982 9985 9989 9994 9998 10000 10001 10002 10002
1759.2440 10002 10000 9998 9996 9993 9991 9989 9988 9988 9989 9990 9992 9993
1765.5115 9993 9990 9986 9982 9980 9982 9987 9993 9997 9999 9998 9996 9992
1771.7791 9990 9993 9998 10002 10004 10004 10002 10000 9999 9998 9997 9997
1777.5645 9997 9996 9995 9993 9992 9992 9994 9999 10004 10008 10010 10009
1783.3499 10007 10003 9999 9994 9992 9991 9992 9994 9996 9997 9996 9994 9992
1789.6173 9990 9989 9988 9989 9991 9995 10000 10004 10007 10008 10009 10010
1795.4027 10010 10011 10011 10010 10009 10007 10007 10006 10006 10004 10002
1800.7061 10002 10003 10006 10010 10013 10014 10013 10010 10008 10007 10008
1806.0093 10009 10009 10008 10007 10005 10004 10004 10004 10005 10006 10006
1811.3126 10007 10006 10006 10006 10005 10004 10003 10001 9999 9998 9998 10000
1817.0980 10003 10006 10009 10010 10010 10009 10008 10007 10006 10006 10006
1822.4012 10006 10004 10003 10002 10002 10003 10004 10005 10006 10008 10011
1827.7046 10013 10016 10016 10015 10013 10011 10009 10007 10004 10002 10002
1833.0078 10005 10009 10014 10017 10017 10013 10008 10003 9998 9994 9992 9995
1838.7932 10002 10011 10019 10023 10023 10018 10011 10006 10002 10002 10004
1844.0966 10010 10016 10020 10022 10022 10021 10019 10016 10014 10010 10006
1849.3998 10001 9998 9996 9997 9999 10002 10005 10009 10013 10016 10017 10015
1855.1852 10012 10008 10005 10006 10009 10014 10020 10024 10025 10022 10014
1860.4885 10003 9993 9988 9989 9994 10002 10008 10011 10010 10007 10006 10008
1866.2739 10013 10021 10030 10037 10042 10041 10037 10032 10028 10027 10028
1871.5771 10029 10027 10023 10017 10013 10011 10011 10012 10011 10008 10002
1876.8805 9997 9995 9997 10004 10015 10025 10031 10033 10031 10027 10023 10021
1882.6659 10022 10023 10024 10023 10020 10016 10012 10010 10009 10010 10013
1887.9691 10016 10019 10020 10017 10013 10008 10008 10010 10015 10019 10021
1893.2725 10019 10013 10005 9997 9992 9992 9997 10005 10013 10020 10024 10026
1899.0579 10026 10025 10022 10020 10018 10017 10019 10023 10026 10028 10028
1904.3611 10027 10027 10029 10030 10029 10026 10021 10018 10018 10021 10024
1909.6644 10025 10023 10020 10019 10020 10023 10026 10027 10027 10027 10027
1914.9677 10029 10030 10028 10024 10018 10013 10010 10010 10011 10012 10012
1920.2710 10011 10009 10008 10005 10003 10001 10002 10006 10011 10016 10021
1925.5742 10024 10026 10026 10026 10027 10028 10030 10033 10035 10038 10041
1930.8776 10046 10051 10058 10063 10065 10061 10052 10041 10028 10014 10002
1936.1808 9992 9986 9984 9984 9983 9982 9981 9983 9991 10005 10023 10037 10042
1942.4484 10034 10019 10005 9996 9993 9994 9997 10001 10007 10015 10024 10031
1948.2338 10035 10037 10040 10047 10058 10070 10080 10084 10082 10081 10084
1953.5370 10094 10107 10118 10119 10109 10092 10076 10069 10072 10077 10077
1958.8403 10064 10041 10017 10002 9999 10003 10002 9990 9969 9952 9950 9964
1964.6257 9985 10000 9998 9981 9964 9962 9984 10025 10070 10106 10126 10126
1970.4111 10108 10072 10025 9975 9935 9917 9925 9956 9998 10034 10045 10021
1976.1965 9964 9892 9832 9807 9825 9876 9939 9992 10030 10055 10076 10094
1981.9819 10104 10097 10070 10027 9979 9940 9923 9930 9961 10007 10057 10098
1987.7673 10119 10117 10097 10071 10049 10036 10031 10026 10012 9990 9965 9949
1993.5527 9949 9967 9997 10027 10047 10054 10051 10048 10054 10069 10089 10101
1999.3381 10101 10088 10072 10060 10058 10066 10079 10090 10095 10090 10071
2004.6414 10038 9993 9945 9905 9886 9892 9920 9961 9999 10026 10041 10048
2010.4268 10055 10063 10067 10061 10041 10009 9977 9956 9953 9966 9983 9989
2016.2122 9975 9942 9904 9881 9884 9915 9967 10025 10076 10111 10129 10131
2021.9976 10124 10118 10120 10137 10171 10215 10257 10281 10269 10216 10130
2027.3009 10032 9952 9912 9923 9973 10038 10088 10105 10087 10047 10004 9974
2033.0863 9962 9966 9978 9988 9990 9983 9969 9952 9941 9938 9947 9966 9989
2039.3538 10013 10033 10047 10054 10057 10058 10061 10068 10077 10085 10088
2044.6571 10084 10073 10062 10055 10057 10065 10074 10079 10072 10054 10028
2049.9604 10001 9981 9975 9985 10006 10035 10064 10084 10092 10086 10070 10053
2055.7458 10040 10036 10040 10051 10066 10085 10107 10128 10142 10143 10127
2061.0491 10096 10058 10024 10001 9991 9993 10000 10009 10018 10025 10030
2066.3523 10032 10030 10026 10020 10015 10014 10020 10036 10061 10092 10119
2071.6555 10135 10133 10116 10091 10066 10049 10041 10038 10036 10034 10030
2076.9590 10023 10015 10005 9995 9991 9995 10006 10020 10029 10030 10024 10017
2082.7444 10014 10019 10028 10035 10034 10024 10010 9996 9987 9985 9987 9991
2088.5298 9994 9995 9998 10007 10025 10050 10075 10091 10092 10078 10055 10033
2094.3152 10021 10019 10023 10027 10027 10024 10023 10028 10037 10046 10052
2099.6184 10051 10044 10035 10026 10020 10016 10015 10019 10027 10038 10047
2104.9216 10053 10054 10055 10061 10072 10085 10092 10089 10075 10054 10035
2110.2249 10023 10020 10021 10022 10022 10021 10023 10030 10040 10049 10052
2115.5283 10046 10035 10022 10014 10013 10018 10027 10034 10036 10031 10023
2120.8315 10013 10008 10009 10015 10022 10027 10024 10015 10001 9989 9982 9984
2126.6169 9993 10006 10019 10028 10034 10039 10044 10051 10060 10067 10069
2131.9202 10062 10045 10022 10000 9985 9979 9982 9991 10004 10019 10034 10046
2137.7056 10050 10043 10030 10020 10022 10043 10074 10103 10117 10110 10090
2143.0088 10070 10061 10069 10088 10109 10120 10116 10099 10076 10054 10042
2148.3123 10040 10045 10047 10038 10015 9984 9957 9944 9954 9983 10021 10054
2154.0977 10071 10067 10046 10021 10003 10001 10017 10041 10059 10061 10049
2159.4009 10036 10034 10049 10072 10089 10093 10089 10087 10095 10113 10126
2164.7041 10121 10089 10041 9997 9975 9982 10009 10037 10048 10036 10008 9979
2170.4895 9963 9965 9983 10005 10021 10023 10015 10003 9998 10006 10025 10047
2176.2749 10064 10071 10068 10065 10066 10075 10084 10085 10072 10047 10023
2181.5781 10014 10027 10057 10088 10103 10093 10062 10028 10007 10008 10029
2186.8816 10058 10080 10088 10084 10076 10075 10085 10105 10123 10128 10111
2192.1848 10069 10010 9948 9897 9868 9865 9885 9921 9964 10005 10038 10060
2197.9702 10072 10075 10075 10073 10072 10069 10061 10045 10020 9989 9959 9935
2203.7556 9924 9926 9938 9952 9964 9972 9977 9980 9983 9985 9985 9982 9975
2210.0232 9970 9968 9972 9983 9999 10020 10043 10065 10083 10095 10097 10092
2215.8086 10081 10070 10058 10047 10034 10019 10002 9987 9978 9977 9985 9999
2221.5940 10017 10032 10041 10042 10036 10026 10019 10015 10018 10024 10032
2226.8972 10041 10050 10061 10068 10070 10063 10046 10023 10001 9986 9979 9981
2232.6826 9986 9992 9999 10007 10016 10024 10029 10025 10012 9992 9971 9955
2238.4680 9949 9955 9968 9984 9996 10003 10003 10001 9998 9998 10000 10003
2244.2534 10006 10007 10006 10003 10000 10000 10004 10012 10022 10031 10034
2249.5566 10030 10020 10005 9991 9980 9974 9971 9971 9974 9978 9985 9992 9999
2255.8242 10003 10005 10002 9996 9989 9983 9981 9984 9990 9996 10000 9999 9994
2262.0918 9989 9987 9991 10001 10013 10023 10028 10025 10018 10009 10004 10003
2267.8772 10007 10011 10013 10011 10007 10001 9996 9993 9992 9991 9991 9993
2273.6626 9997 10003 10011 10020 10029 10035 10038 10036 10030 10019 10006
2278.9658 9993 9980 9970 9963 9960 9962 9967 9976 9988 10001 10015 10027 10035
2285.2334 10039 10037 10030 10020 10009 10000 9994 9990 9988 9986 9985 9983
2291.0188 9981 9979 9977 9975 9974 9973 9975 9978 9984 9991 10000 10010 10018
2297.2861 10022 10022 10018 10011 10004 10000 9997 9997 9997 9997 9995 9992
2303.0715 9989 9986 9984 9985 9989 9996 10006 10014 10019 10018 10012 10003
2308.8569 9994 9990 9990 9993 9997 9998 9993 9984 9973 9964 9961 9962 9967
2315.1245 9972 9975 9976 9977 9980 9986 9993 9998 10001 10000 9998 9994 9989
2321.3921 9982 9976 9972 9973 9978 9986 9994 9998 9998 9994 9987 9980 9974
2327.6597 9968 9963 9958 9952 9945 9938 9932 9929 9930 9936 9948 9961 9975
2333.9270 9984 9986 9982 9973 9962 9953 9947 9945 9943 9940 9936 9934 9937
2340.1946 9945 9956 9966 9969 9968 9963 9959 9961 9968 9981 9994 10007 10015
2346.4622 10017 10013 10007 9998 9990 9984 9980 9980 9981 9984 9986 9986 9984
2352.7297 9984 9988 9998 10009 10014 10007 9985 9957 9937 9939 9965 10008
2358.5151 10050 10075 10075 10055 10026 10001 9984 9973 9963 9952 9940 9931
2364.3005 9930 9935 9943 9951 9956 9960 9966 9977 9990 10002 10006 10000 9984
2370.5679 9964 9947 9938 9939 9949 9964 9979 9992 10002 10008 10011 10010
2376.3533 10006 10000 9993 9988 9985 9986 9989 9992 9993 9994 9995 9997 10001
2382.6208 10008 10015 10022 10027 10030 10031 10030 10028 10025 10022 10018
2387.9241 10014 10011 10008 10006 10005 10005 10008 10013 10019 10025 10030
2393.2275 10032 10031 10028 10025 10021 10018 10014 10011 10009 10007 10007
2398.5308 10008 10009 10011 10013 10015 10016 10017 10018 10019 10021 10022
2403.8340 10022 10020 10016 10011 10006 10003 10003 10006 10011 10017 10021
2409.1372 10023 10021 10016 10010 10004 10001 10000 10001 10003 10005 10005
2414.4407 10005 10004 10003 10004 10006 10009 10013 10017 10020 10022 10022
2419.7439 10020 10016 10011 10007 10005 10006 10012 10021 10028 10032 10029
2425.0471 10021 10010 10001 9996 9996 10001 10008 10014 10019 10023 10027
2430.3503 10033 10040 10044 10043 10037 10026 10016 10009 10008 10012 10017
2435.6538 10022 10023 10021 10017 10012 10008 10005 10003 10002 10003 10007
2440.9570 10014 10022 10028 10030 10027 10019 10009 10002 9999 10000 10005
2446.2603 10012 10018 10022 10022 10020 10016 10011 10006 10002 10001 10001
2451.5635 10003 10005 10008 10013 10018 10023 10028 10031 10031 10030 10027
2456.8669 10024 10023 10023 10025 10027 10028 10028 10026 10022 10020 10019
2462.1702 10019 10019 10019 10017 10013 10009 10006 10005 10006 10008 10009
2467.4734 10008 10006 10001 9995 9990 9986 9986 9990 9998 10008 10017 10023
2473.2588 10026 10025 10021 10016 10009 10004 10000 9999 10000 10002 10004
2478.5620 10005 10004 10003 10001 10002 10003 10004 10005 10005 10005 10006
2483.8655 10008 10013 10018 10023 10027 10028 10028 10026 10024 10023 10021
2489.1687 10020 10020 10020 10019 10019 10019 10019 10020 10020 10021 10020
2494.4719 10019 10018 10019 10022 10026 10030 10033 10034 10032 10028 10021
2499.7751 10014 10007 10002 10001 10004 10012 10020 10027 10032 10032 10029
2505.0786 10025 10020 10017 10015 10015 10016 10018 10017 10014 10008 10001
2510.3818 9995 9992 9994 9998 10003 10008 10011 10013 10014 10013 10013 10012
2516.1672 10012 10015 10021 10030 10039 10044 10044 10039 10031 10023 10018
2521.4705 10015 10014 10012 10009 10007 10006 10007 10009 10011 10010 10006
2526.7737 10001 9997 9996 10000 10007 10017 10027 10036 10042 10045 10045
2532.0771 10042 10038 10033 10028 10023 10017 10011 10008 10006 10006 10006
2537.3804 10006 10006 10007 10010 10016 10024 10030 10032 10029 10024 10018
2542.6836 10015 10016 10019 10024 10028 10030 10031 10030 10028 10025 10023
2547.9868 10021 10021 10020 10020 10018 10016 10014 10012 10011 10012 10013
2553.2903 10015 10017 10017 10017 10016 10016 10017 10019 10022 10025 10027
2558.5935 10027 10026 10024 10023 10020 10018 10014 10011 10009 10010 10015
2563.8967 10023 10033 10040 10042 10040 10034 10027 10023 10022 10024 10028
2569.2000 10032 10033 10032 10029 10024 10019 10014 10010 10005 10002 10000
2574.5034 10000 10001 10001 9998 9993 9987 9983 9983 9989 9999 10010 10020
2580.2888 10025 10025 10020 10013 10006 10001 10000 10003 10007 10011 10014
2585.5920 10014 10013 10012 10011 10011 10012 10013 10013 10014 10015 10017
2590.8953 10017 10016 10014 10012 10011 10010 10011 10011 10011 10011 10010
2596.1987 10009 10008 10008 10008 10009 10011 10014 10016 10017 10016 10013
2601.5020 10011 10011 10011 10013 10014 10014 10012 10009 10005 10003 10003
2606.8052 10005 10009 10012 10016 10017 10016 10012 10007 10003 10000 9999
2612.1084 10001 10004 10007 10009 10010 10010 10010 10009 10007 10004 10001
2617.4119 9999 9999 10002 10006 10010 10012 10012 10011 10008 10005 10003
2622.7151 10003 10006 10010 10016 10019 10020 10017 10012 10007 10005 10005
2628.0183 10008 10011 10012 10010 10005 10000 9996 9995 9996 9998 10000 10001
2633.8037 10002 10002 10002 10002 10003 10003 10003 10003 10003 10003 10004
2639.1069 10004 10003 10002 10000 9998 9998 10000 10002 10004 10006 10007
2644.4104 10007 10007 10007 10006 10004 10001 9997 9994 9992 9993 9995 9998
2650.1958 10000 10001 10000 9998 9996 9996 9997 9998 9999 9999 9999 9998 9996
2656.4631 9995 9994 9994 9995 9996 9997 9998 9998 9998 9998 9998 9998 9998
2662.7307 9997 9997 9996 9996 9995 9994 9993 9992 9992 9992 9992 9992 9992
2668.9983 9992 9994 9995 9997 9998 9997 9996 9994 9993 9992 9991 9990 9988
2675.2659 9986 9985 9985 9986 9989 9993 9996 9998 9999 9998 9997 9996 9994
2681.5332 9992 9991 9991 9991 9993 9995 9998 10001 10002 10003 10001 9999 9997
2687.8008 9995 9993 9990 9988 9985 9984 9983 9984 9986 9988 9990 9992 9994
2694.0684 9995 9996 9995 9995 9994 9993 9994 9995 9996 9997 9996 9994 9990
2700.3359 9987 9984 9983 9983 9985 9987 9989 9991 9991 9991 9990 9989 9989
2706.6033 9989 9989 9989 9988 9987 9985 9983 9982 9982 9982 9983 9983 9984
2712.8708 9985 9986 9986 9986 9985 9983 9981 9980 9979 9979 9979 9979 9979
2719.1384 9980 9980 9981 9982 9983 9984 9985 9985 9985 9984 9982 9980 9978
2725.4060 9978 9979 9981 9984 9986 9985 9983 9979 9974 9971 9970 9971 9973
2731.6733 9976 9979 9982 9983 9985 9986 9986 9984 9982 9979 9976 9974 9973
2737.9409 9972 9971 9971 9970 9970 9970 9971 9973 9974 9973 9972 9970 9968
2744.2085 9967 9967 9967 9969 9971 9972 9973 9973 9973 9971 9970 9970 9970
2750.4761 9971 9972 9972 9971 9970 9967 9965 9964 9964 9965 9967 9970 9972
2756.7434 9975 9977 9979 9979 9978 9976 9973 9969 9965 9962 9961 9960 9961
2763.0110 9962 9964 9965 9965 9964 9963 9962 9962 9964 9967 9969 9969 9967
2769.2786 9963 9959 9956 9955 9956 9958 9959 9960 9960 9959 9955 9952 9948
2775.5461 9947 9947 9949 9952 9954 9956 9956 9955 9954 9953 9952 9953 9953
2781.8135 9953 9953 9953 9953 9953 9953 9953 9952 9950 9947 9944 9942 9942
2788.0811 9943 9944 9944 9944 9943 9944 9945 9947 9949 9950 9950 9948 9946
2794.3486 9945 9944 9945 9946 9948 9949 9948 9946 9943 9939 9936 9934 9934
2800.6162 9934 9934 9935 9935 9937 9940 9943 9946 9946 9945 9943 9941 9941
2806.8835 9942 9943 9944 9943 9940 9937 9934 9932 9932 9934 9936 9938 9937
2813.1511 9935 9933 9930 9929 9930 9931 9933 9934 9934 9934 9934 9935 9936
2819.4187 9937 9936 9934 9930 9925 9921 9919 9918 9919 9920 9922 9923 9924
2825.6863 9925 9926 9926 9924 9922 9920 9918 9918 9920 9922 9922 9921 9917
2831.9536 9913 9910 9909 9910 9912 9914 9914 9913 9912 9911 9910 9910 9910
2838.2212 9911 9912 9914 9916 9918 9919 9918 9916 9914 9911 9910 9910 9910
2844.4888 9909 9908 9906 9904 9904 9905 9907 9909 9911 9911 9910 9908 9907
2850.7563 9906 9905 9905 9906 9906 9907 9907 9908 9910 9913 9915 9917 9918
2857.0237 9916 9914 9911 9908 9907 9907 9908 9910 9912 9912 9912 9910 9908
2863.2913 9906 9904 9903 9904 9906 9908 9909 9910 9910 9909 9908 9906 9904
2869.5588 9901 9898 9896 9894 9894 9896 9897 9897 9896 9896 9896 9899 9903
2875.8264 9907 9910 9911 9910 9907 9903 9899 9894 9890 9886 9884 9884 9886
2882.0938 9889 9892 9895 9896 9897 9897 9897 9897 9896 9894 9892 9890 9889
2888.3613 9889 9889 9888 9887 9887 9887 9888 9891 9893 9895 9894 9891 9886
2894.6289 9881 9875 9872 9871 9873 9877 9882 9886 9889 9891 9892 9892 9893
2900.8965 9893 9892 9889 9884 9878 9872 9869 9869 9874 9882 9889 9894 9896
2907.1638 9894 9889 9883 9878 9874 9871 9870 9869 9869 9869 9870 9871 9873
2913.4314 9874 9875 9873 9869 9864 9858 9853 9849 9848 9848 9847 9847 9845
2919.6990 9843 9841 9840 9840 9841 9843 9844 9846 9848 9848 9848 9847 9846
2925.9666 9845 9844 9844 9845 9846 9847 9849 9853 9859 9866 9873 9880 9886
2932.2339 9891 9894 9896 9895 9893 9889 9884 9881 9878 9875 9873 9870 9866
2938.5015 9864 9862 9861 9860 9857 9852 9847 9843 9842 9844 9848 9852 9856
2944.7690 9860 9862 9862 9860 9856 9851 9847 9845 9847 9851 9856 9858 9858
2951.0366 9857 9855 9854 9856 9857 9859 9859 9858 9856 9856 9857 9857 9858
2957.3040 9855 9851 9843 9835 9826 9817 9811 9805 9801 9798 9796 9794 9793
2963.5715 9792 9792 9793 9796 9800 9804 9808 9812 9815 9818 9822 9828 9834
2969.8391 9841 9845 9848 9849 9849 9849 9850 9851 9851 9850 9848 9845 9843
2976.1067 9840 9838 9836 9834 9834 9835 9838 9843 9848 9852 9854 9853 9852
2982.3740 9850 9849 9849 9849 9847 9846 9845 9846 9851 9857 9862 9865 9864
2988.6416 9859 9853 9848 9846 9847 9849 9850 9848 9843 9838 9835 9836 9840
2994.9092 9845 9849 9851 9851 9850 9849 9850 9851 9852 9853 9854 9856 9857
3001.1768 9858 9859 9859 9858 9857 9857 9856 9855 9853 9851 9849 9849 9851
3007.4441 9855 9859 9863 9865 9865 9863 9859 9855 9852 9851 9852 9853 9855
3013.7117 9856 9856 9855 9854 9855 9855 9856 9857 9856 9855 9853 9850 9847
3019.9792 9844 9842 9841 9841 9842 9845 9847 9848 9848 9847 9845 9843 9842
3026.2468 9843 9844 9847 9849 9851 9851 9850 9847 9842 9838 9834 9831 9831
3032.5142 9832 9834 9838 9841 9843 9843 9843 9842 9842 9842 9842 9841 9841
3038.7817 9840 9839 9840 9841 9843 9842 9841 9838 9835 9833 9832 9832 9833
3045.0493 9834 9836 9837 9837 9837 9836 9834 9834 9833 9834 9834 9833 9831
3051.3169 9829 9826 9826 9827 9831 9835 9838 9838 9835 9831 9827 9826 9827
3057.5842 9831 9835 9837 9837 9833 9827 9821 9817 9815 9816 9820 9825 9830
3063.8518 9833 9834 9834 9834 9835 9835 9836 9836 9836 9835 9832 9828 9823
3070.1194 9818 9814 9811 9810 9810 9810 9810 9811 9813 9817 9822 9829 9835
3076.3870 9838 9837 9833 9826 9819 9812 9807 9803 9801 9800 9801 9801 9803
3082.6543 9806 9810 9814 9817 9818 9817 9815 9812 9812 9814 9817 9819 9820
3088.9219 9819 9816 9813 9812 9813 9815 9817 9818 9817 9815 9812 9808 9804
3095.1895 9800 9798 9797 9798 9801 9805 9807 9808 9807 9804 9802 9803 9805
3101.4570 9810 9814 9817 9818 9817 9816 9815 9814 9812 9810 9807 9804 9802
3107.7244 9801 9802 9806 9810 9814 9818 9820 9820 9818 9814 9808 9800 9793
3113.9919 9788 9787 9791 9797 9803 9808 9810 9810 9807 9804 9800 9795 9793
3120.2595 9793 9796 9801 9805 9807 9806 9802 9797 9791 9786 9782 9779 9777
3126.5271 9777 9779 9781 9783 9784 9784 9784 9785 9787 9791 9794 9795 9794
3132.7944 9791 9788 9786 9785 9785 9785 9785 9786 9787 9787 9785 9781 9777
3139.0620 9775 9774 9775 9777 9777 9776 9772 9768 9766 9767 9770 9775 9778
3145.3296 9780 9780 9779 9777 9776 9776 9776 9775 9773 9771 9767 9763 9758
3151.5972 9753 9747 9741 9739 9739 9744 9751 9758 9762 9762 9757 9751 9745
3157.8645 9741 9740 9742 9744 9745 9745 9745 9744 9745 9747 9749 9750 9749
3164.1321 9745 9737 9727 9716 9706 9699 9697 9699 9704 9710 9716 9719 9720
3170.3997 9719 9716 9713 9711 9711 9713 9715 9715 9714 9710 9706 9702 9699
3176.6672 9697 9694 9691 9688 9685 9684 9682 9680 9677 9675 9674 9675 9678
3182.9346 9680 9680 9676 9671 9667 9666 9667 9669 9671 9670 9668 9667 9665
3189.2021 9663 9660 9656 9651 9646 9642 9639 9637 9636 9636 9637 9637 9637
3195.4697 9636 9633 9627 9621 9615 9611 9608 9607 9607 9607 9607 9606 9606
3201.7373 9605 9603 9602 9599 9598 9597 9598 9601 9604 9606 9606 9603 9598
3208.0046 9592 9586 9582 9580 9579 9580 9581 9580 9577 9572 9565 9559 9556
3214.2722 9556 9558 9560 9560 9558 9556 9553 9551 9550 9547 9542 9535 9526
3220.5398 9519 9514 9512 9513 9514 9516 9519 9521 9524 9526 9526 9524 9520
3226.8074 9515 9513 9512 9512 9511 9508 9502 9491 9479 9467 9458 9454 9456
3233.0747 9462 9468 9471 9468 9461 9451 9445 9444 9448 9455 9459 9460 9458
3239.3423 9454 9450 9448 9446 9443 9440 9438 9437 9438 9441 9444 9444 9443
3245.6099 9441 9441 9442 9443 9444 9442 9440 9437 9437 9438 9441 9443 9443
3251.8774 9440 9434 9428 9422 9419 9419 9420 9422 9423 9423 9422 9422 9424
3258.1448 9428 9434 9441 9449 9454 9457 9457 9454 9448 9441 9433 9426 9420
3264.4124 9418 9420 9425 9433 9441 9447 9452 9455 9457 9459 9461 9461 9460
3270.6799 9457 9455 9454 9456 9461 9467 9471 9474 9474 9473 9472 9472 9472
3276.9475 9471 9470 9468 9467 9467 9470 9475 9481 9487 9492 9494 9494 9492
3283.2148 9489 9487 9486 9487 9491 9497 9503 9508 9511 9513 9512 9512 9511
3289.4824 9512 9513 9514 9515 9516 9518 9521 9524 9526 9527 9525 9521 9519
3295.7500 9517 9519 9523 9527 9531 9533 9533 9533 9532 9531 9529 9527 9525
3302.0176 9524 9525 9527 9532 9539 9548 9555 9560 9561 9558 9550 9540 9531
3308.2849 9524 9522 9525 9533 9541 9549 9553 9554 9551 9546 9541 9536 9531
3314.5525 9527 9525 9524 9525 9528 9531 9535 9538 9540 9541 9541 9541 9541
3320.8201 9541 9541 9541 9540 9538 9538 9538 9540 9542 9544 9544 9543 9540
3327.0876 9537 9535 9535 9536 9540 9544 9550 9555 9558 9561 9562 9562 9562
3333.3550 9560 9558 9555 9554 9555 9559 9564 9569 9572 9573 9571 9568 9565
3339.6226 9562 9560 9562 9567 9574 9581 9586 9588 9587 9586 9584 9582 9579
3345.8901 9576 9570 9565 9561 9562 9567 9575 9581 9583 9580 9574 9566 9559
3352.1577 9556 9555 9558 9562 9567 9574 9580 9587 9592 9596 9597 9597 9595
3358.4250 9592 9588 9584 9582 9583 9586 9590 9591 9590 9585 9579 9575 9575
3364.6926 9580 9586 9592 9595 9594 9592 9590 9589 9591 9593 9596 9599 9602
3370.9602 9605 9607 9608 9607 9603 9598 9593 9590 9590 9594 9601 9610 9618
3377.2278 9625 9628 9627 9625 9622 9620 9620 9621 9621 9619 9616 9614 9613
3383.4951 9614 9616 9619 9623 9625 9627 9628 9628 9627 9626 9625 9626 9629
3389.7627 9632 9635 9637 9636 9634 9632 9629 9625 9623 9621 9620 9620 9621
3396.0303 9622 9622 9621 9621 9622 9625 9628 9632 9634 9634 9632 9630 9627
3402.2979 9624 9621 9619 9617 9617 9619 9621 9624 9625 9623 9619 9613 9609
3408.5652 9607 9610 9616 9623 9629 9632 9632 9631 9629 9627 9626 9623 9618
3414.8328 9611 9603 9595 9588 9583 9581 9581 9583 9585 9587 9589 9589 9590
3421.1003 9589 9588 9587 9585 9583 9581 9580 9580 9582 9583 9584 9583 9579
3427.3679 9572 9564 9557 9551 9548 9548 9548 9550 9551 9551 9547 9541 9534
3433.6353 9526 9521 9519 9520 9522 9523 9522 9518 9513 9507 9503 9502 9504
3439.9028 9507 9510 9512 9512 9510 9509 9509 9509 9507 9501 9493 9483 9473
3446.1704 9467 9464 9465 9466 9467 9466 9465 9462 9458 9451 9442 9431 9420
3452.4380 9410 9403 9397 9393 9391 9388 9386 9384 9383 9383 9383 9383 9384
3458.7053 9387 9393 9402 9413 9426 9438 9449 9459 9468 9475 9482 9489 9495
3464.9729 9501 9507 9513 9520 9527 9535 9543 9551 9561 9572 9583 9592 9600
3471.2405 9604 9607 9610 9613 9617 9623 9629 9634 9638 9640 9642 9644 9648
3477.5081 9654 9661 9669 9676 9684 9689 9693 9695 9694 9692 9690 9691 9695
3483.7754 9700 9705 9710 9713 9714 9715 9715 9713 9711 9710 9711 9715 9721
3490.0430 9728 9732 9736 9737 9739 9742 9746 9751 9754 9756 9755 9754 9753
3496.3105 9754 9758 9763 9770 9776 9780 9782 9783 9782 9781 9780 9779 9779
3502.5781 9777 9776 9775 9775 9777 9779 9782 9786 9791 9797 9803 9808 9811
3508.8455 9811 9809 9807 9806 9809 9815 9821 9826 9827 9826 9823 9821 9820
3515.1130 9821 9823 9824 9824 9822 9821 9822 9826 9832 9839 9845 9849 9852
3521.3806 9854 9859 9864 9868 9868 9864 9855 9846 9839 9837 9838 9840 9842
3527.6482 9841 9840 9840 9842 9847 9855 9863 9871 9876 9879 9878 9877 9876
3533.9155 9877 9881 9886 9890 9890 9886 9880 9874 9869 9867 9869 9873 9879
3540.1831 9885 9890 9894 9895 9893 9891 9888 9886 9883 9880 9878 9876 9876
3546.4507 9881 9888 9898 9908 9915 9918 9917 9914 9912 9911 9913 9916 9918
3552.7183 9916 9911 9903 9896 9891 9890 9892 9896 9902 9908 9913 9916 9916
3558.9856 9915 9914 9914 9916 9920 9925 9928 9928 9925 9919 9914 9910 9907
3565.2532 9906 9904 9901 9899 9900 9905 9914 9922 9929 9932 9932 9929 9925
3571.5208 9921 9918 9916 9916 9917 9919 9921 9924 9928 9935 9944 9954 9963
3577.7883 9969 9970 9965 9957 9947 9940 9935 9933 9933 9934 9937 9941 9946
3584.0559 9952 9960 9968 9976 9983 9987 9986 9982 9976 9972 9969 9967 9963
3590.3232 9959 9955 9952 9951 9954 9959 9963 9963 9961 9957 9954 9953 9954
3596.5908 9956 9956 9954 9951 9947 9943 9940 9939 9940 9943 9947 9951 9955
3602.8584 9959 9963 9969 9975 9980 9984 9982 9975 9963 9948 9936 9933 9938
3609.1260 9951 9965 9975 9979 9978 9973 9968 9966 9967 9971 9973 9974 9974
3615.3933 9974 9976 9978 9979 9980 9980 9982 9986 9992 9996 9995 9989 9979
3621.6609 9968 9959 9955 9957 9964 9973 9982 9986 9984 9977 9967 9956 9948
3627.9285 9947 9956 9972 9985 9990 9989 9984 9979 9973 9967 9962 9959 9960
3634.1960 9965 9972 9978 9981 9983 9984 9984 9983 9981 9977 9970 9964 9958
3640.4634 9955 9955 9958 9962 9968 9973 9979 9984 9986 9986 9983 9979 9979
3646.7310 9985 9998 10011 10019 10018 10012 10006 10003 10004 10005 10004
3652.0342 10001 9997 9993 9991 9989 9987 9987 9987 9989 9992 9995 9997 9996
3658.3018 9995 9993 9992 9992 9992 9993 9993 9992 9991 9990 9990 9991 9992
3664.5693 9993 9994 9995 9998 10002 10006 10008 10007 9999 9986 9970 9960 9960
3670.8369 9967 9977 9985 9991 9995 9998 10000 10003 10008 10011 10011 10008
3676.6223 10005 10005 10007 10010 10013 10011 10005 9995 9985 9976 9972 9970
3682.4077 9971 9974 9977 9979 9981 9982 9983 9984 9986 9989 9992 9992 9989
3688.6750 9982 9973 9967 9966 9971 9981 9994 10005 10013 10018 10018 10014
3694.4604 10007 9997 9986 9977 9971 9969 9971 9976 9984 9991 9999 10007 10013
3700.7280 10017 10018 10014 10008 10003 10000 10000 10001 10001 10001 9998
3706.0313 9995 9992 9990 9989 9988 9985 9979 9972 9966 9964 9969 9979 9993
3712.2988 10002 10004 10001 9997 9993 9991 9991 9992 9992 9991 9990 9991 9998
3718.5664 10008 10021 10031 10037 10037 10034 10028 10020 10013 10006 9999
3723.8696 9992 9985 9977 9971 9968 9970 9979 9990 10002 10011 10016 10017
3729.6550 10014 10009 10003 9998 9995 9995 9999 10003 10008 10011 10013 10011
3735.4404 10007 10001 9996 9992 9990 9990 9991 9993 9994 9994 9992 9987 9981
3741.7080 9977 9975 9978 9986 9999 10012 10015 10008 10001 9997 9995 9995 9998
3747.9756 10005 10015 10027 10039 10047 10051 10051 10049 10043 10037 10030
3753.2788 10025 10019 10012 10004 9995 9987 9983 9984 9988 9993 9997 10001
3759.0642 10005 10011 10018 10022 10023 10021 10017 10013 10010 10009 10008
3764.3674 10006 10002 9997 9992 9990 9992 9996 10002 10007 10010 10010 10006
3770.1528 10001 9999 10000 10001 10002 10000 9996 9990 9984 9979 9977 9977
3775.9382 9980 9984 9989 9996 10003 10010 10014 10016 10015 10011 10009 10007
3781.7236 10007 10008 10008 10007 10004 10000 9995 9992 9991 9993 9995 9997
3787.5090 9999 10001 10004 10007 10011 10013 10015 10014 10011 10005 9998 9992
3793.2944 9987 9985 9984 9983 9982 9982 9983 9989 9996 10005 10011 10015 10018
3799.5620 10019 10020 10021 10021 10019 10016 10015 10015 10016 10018 10020
3804.8652 10021 10018 10012 10003 9996 9997 10004 10012 10018 10020 10018
3810.1685 10013 10007 10004 10003 10004 10006 10007 10008 10009 10011 10012
3815.4719 10012 10011 10007 10003 10000 9999 10001 10006 10015 10029 10041
3820.7751 10039 10021 9999 9982 9974 9972 9973 9976 9978 9981 9983 9987 9993
3827.0427 9998 10001 10001 10000 9997 9995 9995 9996 9998 10000 10001 10000
3832.8281 9998 9996 9997 9999 10003 10008 10011 10012 10013 10015 10019 10024
3838.6135 10026 10023 10015 10001 9987 9974 9966 9964 9966 9974 9984 9994
3844.3989 10000 10002 10000 9998 9995 9993 9992 9993 9994 9994 9993 9992 9991
3850.6663 9990 9992 9997 10004 10013 10020 10024 10024 10022 10020 10016 10012
3856.4517 10007 10002 9998 9995 9994 9993 9992 9991 9990 9989 9991 9994 10000
3862.7192 10008 10017 10027 10036 10041 10041 10037 10032 10027 10024 10023
3868.0225 10023 10024 10027 10028 10026 10021 10017 10014 10014 10014 10015
3873.3259 10014 10010 10005 10002 10000 10000 9999 9997 9994 9989 9983 9978
3879.1113 9976 9980 9990 10002 10011 10014 10012 10007 10003 10000 10001 10003
3884.8967 10005 10004 9999 9994 9991 9989 9988 9987 9987 9987 9989 9993 9997
3891.1641 10001 10001 10000 9998 9997 9998 9999 10001 10001 10001 10000 10000
3896.9495 10003 10011 10024 10039 10051 10055 10049 10036 10019 10004 9994
3902.2529 9991 9993 9997 10000 9999 9997 9996 9998 10002 10006 10010 10012
3908.0383 10015 10017 10020 10021 10021 10018 10012 10007 10002 9999 9997 9995
3913.8237 9994 9993 9994 9996 9999 9999 9997 9994 9991 9992 9996 10001 10006
3920.0911 10008 10008 10006 10005 10006 10009 10011 10013 10014 10014 10014
3925.3945 10014 10013 10010 10005 10000 9996 9996 9999 10004 10007 10009 10006
3931.1799 10002 9996 9992 9989 9989 9991 9994 9999 10004 10009 10011 10012
3936.9653 10011 10009 10007 10007 10007 10008 10011 10014 10016 10016 10013
3942.2686 10008 10003 10000 10000 10002 10005 10008 10011 10013 10015 10016
3947.5718 10014 10010 10004 9996 9991 9989 9991 9995 10000 10004 10005 10005
3953.3572 10004 10002 10002 10001 10001 10001 10001 10002 10003 10004 10006
3958.6604 10007 10007 10007 10006 10004 10001 9997 9994 9992 9991 9990 9989
3964.4458 9987 9986 9985 9988 9994 10002 10011 10019 10022 10021 10015 10008
3970.2312 10002 9998 9996 9998 10001 10004 10005 10006 10005 10006 10009 10014
3976.0166 10020 10026 10030 10033 10032 10030 10025 10018 10011 10005 10000
3981.3201 9997 9996 9996 9998 10000 10003 10007 10010 10012 10013 10011 10008
3987.1055 10005 10002 9999 9998 9997 9996 9995 9994 9992 9991 9992 9993 9997
3993.3728 10000 10004 10008 10011 10015 10019 10022 10023 10021 10015 10008
3998.6763 10001 9996 9994 9996
##END= 
