##TITLE= INC035
##JCAMP-DX= 4.24
##DATA TYPE= INFRARED SPECTRUM
##ORIGIN= JASCO
##OWNER= 
##DATE= 22/04/14
##TIME= 11:45:14
##SPECTROMETER/DATA SYSTEM= 
##RESOLUTION= 
##DELTAX=   0.48211674
##XUNITS= 1/CM
##YUNITS= TRANSMITTANCE
##XFACTOR= 1.00000
##YFACTOR= 0.0001
##FIRSTX=   599.7532
##LASTX=  4000.1226
##NPOINTS=     7054
##FIRSTY=      0.68064
##MAXY=      1.14091
##MINY=      0.13634
##XYDATA= (X++(Y..Y))
599.7532 6806 6821 6841 6861 6875 6883 6887 6891 6901 6919 6938 6951 6947 6926
606.5029 6894 6864 6847 6847 6860 6876 6887 6889 6881 6863 6835 6798 6756 6715
613.2525 6681 6659 6651 6659 6684 6727 6785 6847 6896 6914 6898 6860 6818 6790
620.0021 6784 6800 6826 6852 6869 6873 6865 6849 6826 6802 6779 6762 6754 6752
626.7518 6754 6754 6751 6748 6748 6756 6772 6795 6819 6836 6841 6831 6810 6789
633.5014 6778 6785 6807 6834 6849 6844 6821 6795 6783 6797 6834 6881 6916 6922
640.2510 6891 6828 6754 6691 6658 6663 6699 6748 6792 6815 6817 6808 6799 6800
647.0007 6810 6822 6829 6825 6811 6793 6780 6776 6783 6798 6817 6837 6853 6865
653.7503 6871 6873 6870 6865 6861 6861 6866 6868 6859 6829 6778 6716 6659 6624
660.4999 6620 6644 6687 6732 6768 6788 6791 6782 6768 6757 6751 6750 6747 6735
667.2496 6700 6641 6602 6640 6716 6778 6812 6820 6806 6777 6747 6729 6732 6756
673.9992 6791 6825 6843 6835 6798 6736 6660 6587 6534 6509 6509 6523 6533 6535
680.7488 6534 6551 6603 6693 6802 6897 6946 6937 6883 6815 6764 6745 6752 6763
687.4985 6759 6733 6697 6669 6669 6700 6749 6789 6797 6759 6681 6587 6508 6476
694.2481 6503 6584 6692 6793 6856 6865 6825 6759 6697 6662 6664 6694 6732 6758
700.9977 6760 6739 6707 6681 6674 6690 6723 6765 6803 6828 6835 6823 6793 6751
707.7474 6703 6660 6631 6621 6630 6649 6667 6671 6655 6621 6576 6535 6507 6500
714.4970 6510 6526 6537 6531 6505 6464 6418 6381 6361 6361 6378 6403 6427 6443
721.2466 6448 6445 6438 6432 6430 6428 6425 6415 6396 6368 6339 6312 6290 6271
727.9963 6249 6220 6187 6155 6134 6129 6138 6155 6171 6180 6181 6176 6172 6173
734.7459 6182 6199 6220 6241 6258 6272 6287 6310 6348 6401 6463 6524 6578 6622
741.4955 6661 6703 6751 6803 6855 6910 6974 7060 7169 7289 7395 7464 7485 7470
748.2452 7441 7420 7411 7406 7390 7349 7282 7190 7080 6961 6843 6734 6639 6557
754.9948 6487 6427 6379 6345 6322 6299 6255 6170 6044 5895 5759 5662 5616 5618
761.7444 5654 5704 5743 5756 5737 5687 5611 5510 5382 5231 5064 4890 4718 4551
768.4941 4387 4224 4062 3904 3751 3606 3467 3333 3202 3077 2964 2865 2777 2697
775.2437 2618 2536 2450 2360 2269 2176 2081 1985 1890 1798 1713 1638 1571 1513
781.9933 1463 1423 1392 1373 1364 1363 1369 1381 1399 1426 1462 1510 1569 1643
788.7430 1731 1834 1947 2067 2187 2304 2418 2533 2654 2784 2925 3072 3222 3370
795.4926 3514 3655 3790 3922 4050 4174 4295 4413 4528 4642 4754 4869 4986 5108
802.2422 5236 5369 5507 5649 5792 5932 6064 6187 6299 6402 6497 6583 6660 6728
808.9919 6788 6840 6887 6928 6964 6992 7012 7021 7022 7016 7004 6989 6971 6950
815.7415 6926 6894 6854 6804 6746 6682 6614 6543 6469 6390 6304 6208 6100 5978
822.4911 5842 5695 5540 5381 5220 5058 4894 4731 4570 4418 4287 4183 4114 4079
829.2408 4073 4090 4125 4177 4247 4337 4448 4579 4726 4885 5051 5221 5395 5575
835.9904 5761 5954 6151 6348 6544 6735 6920 7101 7275 7442 7598 7743 7874 7993
842.7401 8100 8196 8281 8355 8418 8470 8514 8550 8583 8614 8644 8674 8704 8734
849.4897 8764 8793 8822 8848 8873 8894 8910 8920 8926 8929 8932 8939 8952 8973
856.2393 9004 9044 9090 9137 9184 9228 9268 9305 9339 9370 9399 9425 9449 9474
862.9890 9501 9530 9561 9591 9618 9639 9653 9659 9661 9662 9665 9671 9682 9695
869.7386 9708 9720 9731 9741 9750 9759 9765 9767 9765 9759 9751 9742 9737 9737
876.4882 9743 9753 9765 9774 9779 9777 9771 9763 9753 9744 9734 9725 9717 9712
883.2379 9711 9712 9712 9709 9702 9693 9685 9680 9681 9687 9694 9700 9702 9700
889.9875 9694 9687 9682 9679 9677 9677 9675 9673 9671 9668 9666 9663 9658 9649
896.7371 9636 9617 9594 9566 9535 9501 9468 9436 9407 9380 9352 9321 9283 9238
903.4868 9187 9131 9073 9012 8948 8878 8803 8721 8635 8545 8451 8351 8243 8124
910.2364 7993 7852 7704 7554 7406 7262 7126 6997 6880 6777 6694 6634 6603 6601
916.9860 6629 6683 6761 6857 6966 7085 7211 7343 7478 7614 7749 7879 8002 8116
923.7357 8223 8323 8417 8506 8592 8674 8754 8830 8902 8969 9031 9088 9142 9193
930.4853 9244 9293 9340 9384 9423 9457 9486 9510 9529 9544 9556 9565 9573 9582
937.2349 9594 9607 9621 9635 9649 9663 9679 9696 9716 9737 9759 9782 9806 9829
943.9846 9850 9869 9885 9900 9914 9926 9936 9941 9942 9939 9935 9933 9935 9940
950.7342 9948 9955 9961 9965 9966 9964 9958 9949 9938 9927 9917 9910 9908 9907
957.4838 9906 9902 9894 9884 9874 9862 9851 9838 9825 9812 9799 9788 9778 9766
964.2335 9750 9731 9707 9680 9651 9621 9590 9557 9523 9487 9450 9409 9364 9315
970.9831 9259 9196 9128 9055 8977 8895 8809 8720 8627 8531 8431 8326 8218 8106
977.7327 7993 7881 7773 7673 7583 7505 7442 7396 7368 7362 7381 7425 7496 7591
984.4824 7706 7835 7973 8117 8265 8416 8569 8721 8868 9009 9140 9260 9367 9461
991.2320 9544 9615 9677 9733 9781 9822 9854 9875 9884 9883 9873 9860 9845 9831
997.9816 9816 9796 9769 9733 9688 9636 9579 9520 9460 9395 9325 9248 9166 9081
1004.7313 8996 8916 8842 8777 8726 8690 8674 8679 8706 8753 8817 8893 8978
1010.9988 9067 9158 9249 9336 9417 9492 9561 9625 9687 9748 9804 9855 9895
1017.2663 9926 9947 9964 9982 10003 10026 10049 10068 10082 10091 10096 10101
1023.0517 10107 10113 10119 10123 10127 10130 10134 10139 10146 10154 10162
1028.3550 10167 10168 10167 10165 10163 10164 10166 10167 10168 10168 10169
1033.6583 10171 10176 10184 10192 10198 10200 10200 10199 10197 10197 10198
1038.9615 10198 10197 10194 10191 10187 10184 10183 10183 10183 10184 10185
1044.2649 10187 10189 10191 10191 10191 10190 10190 10192 10195 10199 10203
1049.5681 10206 10207 10207 10208 10211 10215 10221 10229 10238 10247 10257
1054.8715 10267 10275 10281 10284 10285 10286 10288 10292 10299 10309 10320
1060.1747 10334 10349 10365 10383 10400 10417 10432 10444 10452 10456 10457
1065.4780 10456 10453 10450 10448 10445 10441 10436 10429 10418 10405 10388
1070.7813 10369 10350 10331 10314 10298 10283 10268 10249 10226 10198 10165
1076.0846 10127 10087 10046 10005 9966 9930 9896 9866 9839 9814 9791 9772 9756
1082.3521 9743 9734 9727 9721 9717 9714 9713 9713 9713 9713 9712 9712 9714
1088.6196 9717 9720 9723 9723 9720 9717 9714 9712 9712 9713 9713 9712 9710
1094.8871 9710 9712 9715 9718 9719 9716 9711 9705 9697 9689 9680 9671 9661
1101.1547 9653 9647 9642 9637 9628 9615 9598 9577 9556 9535 9514 9492 9467
1107.4221 9439 9407 9371 9332 9292 9251 9211 9170 9125 9075 9021 8965 8907
1113.6897 8850 8794 8739 8683 8628 8573 8519 8466 8413 8360 8304 8247 8189
1119.9572 8131 8075 8022 7970 7918 7865 7811 7757 7703 7650 7598 7544 7490
1126.2247 7436 7382 7329 7273 7215 7154 7091 7028 6967 6910 6855 6800 6744
1132.4922 6685 6624 6562 6499 6436 6373 6309 6246 6184 6125 6069 6015 5963
1138.7598 5913 5864 5816 5771 5729 5690 5656 5627 5604 5588 5579 5577 5580
1145.0272 5588 5599 5614 5635 5663 5698 5739 5786 5838 5894 5955 6023 6098
1151.2948 6179 6265 6353 6441 6530 6619 6707 6794 6881 6966 7048 7127 7204
1157.5623 7279 7350 7420 7487 7551 7614 7674 7731 7784 7834 7878 7919 7956
1163.8298 7989 8021 8049 8075 8098 8117 8133 8144 8152 8155 8152 8144 8130
1170.0973 8110 8085 8054 8020 7982 7941 7897 7851 7800 7745 7684 7618 7548
1176.3649 7478 7409 7342 7275 7208 7139 7069 6998 6931 6870 6816 6769 6728
1182.6323 6689 6652 6617 6585 6559 6540 6532 6533 6542 6558 6580 6607 6638
1188.8999 6675 6716 6761 6807 6854 6900 6943 6985 7024 7063 7101 7138 7175
1195.1674 7212 7248 7286 7324 7364 7407 7455 7508 7565 7626 7690 7757 7826
1201.4349 7898 7973 8051 8132 8215 8298 8381 8463 8543 8620 8694 8766 8836
1207.7024 8905 8972 9038 9102 9165 9226 9287 9348 9407 9462 9512 9556 9595
1213.9700 9631 9665 9697 9728 9757 9784 9809 9833 9855 9875 9894 9910 9927
1220.2374 9942 9958 9972 9986 9998 10010 10021 10031 10040 10047 10051 10054
1226.0228 10057 10061 10066 10070 10074 10076 10077 10079 10081 10084 10086
1231.3262 10089 10091 10092 10094 10095 10097 10096 10095 10094 10093 10095
1236.6294 10099 10103 10107 10110 10110 10108 10107 10106 10107 10110 10114
1241.9327 10120 10127 10134 10141 10146 10151 10156 10163 10171 10180 10190
1247.2360 10202 10215 10232 10250 10270 10291 10314 10339 10367 10400 10438
1252.5393 10480 10524 10571 10620 10673 10729 10786 10846 10905 10962 11015
1257.8425 11063 11105 11140 11169 11193 11209 11216 11209 11187 11151 11104
1263.1459 11049 10989 10928 10877 10849 10856 10902 10970 11025 11023 10942
1268.4491 10802 10652 10541 10497 10527 10619 10750 10893 11027 11140 11231
1273.7524 11304 11359 11394 11409 11405 11385 11353 11310 11260 11203 11141
1279.0557 11076 11008 10939 10869 10800 10734 10672 10615 10563 10517 10475
1284.3590 10437 10402 10371 10343 10318 10296 10277 10260 10245 10230 10216
1289.6622 10202 10189 10178 10170 10163 10158 10152 10147 10140 10133 10124
1294.9656 10113 10101 10088 10074 10060 10047 10036 10026 10017 10008 9999
1300.2688 9989 9978 9966 9953 9941 9929 9917 9905 9894 9883 9873 9863 9853
1306.5364 9843 9831 9819 9806 9793 9781 9769 9756 9743 9730 9714 9698 9680
1312.8038 9661 9642 9624 9608 9592 9577 9562 9545 9528 9509 9489 9468 9445
1319.0714 9420 9396 9371 9349 9328 9309 9290 9270 9248 9225 9201 9177 9152
1325.3389 9127 9103 9079 9055 9032 9009 8987 8966 8947 8928 8910 8892 8874
1331.6064 8855 8837 8819 8801 8783 8765 8748 8730 8714 8697 8681 8664 8647
1337.8739 8630 8614 8599 8584 8569 8552 8533 8513 8491 8468 8446 8424 8404
1344.1415 8385 8366 8349 8331 8313 8295 8275 8256 8237 8218 8200 8184 8168
1350.4089 8153 8137 8121 8104 8087 8070 8054 8038 8023 8006 7988 7967 7942
1356.6765 7915 7886 7857 7828 7800 7770 7738 7703 7666 7626 7582 7532 7471
1362.9440 7399 7321 7240 7158 7073 6982 6884 6783 6686 6602 6542 6513 6518
1369.2115 6558 6627 6717 6819 6924 7027 7123 7214 7300 7383 7461 7528 7579
1375.4790 7613 7634 7645 7650 7647 7637 7619 7594 7561 7522 7479 7433 7386
1381.7466 7341 7302 7274 7261 7266 7289 7328 7381 7450 7542 7666 7822 7994
1388.0140 8154 8290 8404 8508 8611 8715 8816 8907 8982 9041 9087 9124 9154
1394.2816 9177 9193 9201 9204 9203 9202 9199 9195 9189 9181 9171 9161 9154
1400.5491 9148 9144 9141 9137 9133 9129 9125 9123 9124 9127 9132 9137 9141
1406.8167 9146 9152 9158 9164 9171 9177 9184 9191 9201 9212 9224 9236 9246
1413.0841 9255 9263 9271 9279 9289 9301 9313 9325 9336 9347 9359 9375 9394
1419.3517 9412 9424 9429 9430 9429 9428 9426 9425 9425 9426 9429 9431 9432
1425.6191 9432 9431 9429 9428 9427 9426 9423 9419 9416 9413 9413 9412 9411
1431.8867 9408 9402 9393 9381 9369 9356 9342 9327 9307 9284 9260 9243 9233
1438.1542 9225 9216 9205 9193 9181 9172 9167 9166 9170 9178 9189 9203 9219
1444.4218 9236 9253 9268 9282 9295 9308 9322 9336 9345 9346 9340 9328 9310
1450.6892 9288 9261 9229 9192 9152 9109 9061 9010 8953 8889 8815 8727 8623
1456.9568 8515 8425 8368 8338 8329 8336 8356 8391 8440 8499 8563 8626 8682
1463.2242 8731 8775 8817 8857 8890 8912 8925 8936 8948 8965 8987 9012 9038
1469.4918 9063 9085 9107 9129 9156 9196 9251 9312 9360 9393 9415 9432 9449
1475.7593 9468 9490 9513 9534 9551 9566 9579 9591 9603 9614 9625 9638 9651
1482.0269 9664 9678 9690 9702 9712 9721 9729 9736 9744 9752 9762 9771 9778
1488.2943 9785 9792 9801 9815 9832 9847 9856 9861 9865 9868 9871 9875 9880
1494.5619 9886 9893 9902 9911 9919 9923 9925 9928 9933 9941 9950 9958 9965
1500.8293 9970 9976 9982 9989 9995 10001 10004 10006 10007 10008 10013 10025
1506.6147 10041 10052 10056 10058 10062 10067 10073 10078 10082 10086 10091
1511.9181 10098 10106 10115 10124 10130 10135 10137 10138 10137 10138 10142
1517.2213 10149 10157 10165 10172 10178 10183 10187 10187 10185 10186 10191
1522.5247 10198 10205 10211 10215 10219 10224 10229 10234 10237 10241 10245
1527.8279 10251 10259 10268 10276 10281 10285 10288 10290 10291 10292 10291
1533.1312 10291 10294 10301 10310 10318 10325 10329 10331 10333 10334 10336
1538.4344 10342 10353 10367 10376 10378 10378 10378 10379 10381 10383 10385
1543.7378 10387 10390 10394 10402 10410 10418 10425 10431 10436 10440 10443
1549.0410 10446 10448 10450 10453 10458 10462 10467 10472 10477 10483 10490
1554.3444 10497 10503 10509 10514 10518 10521 10523 10521 10513 10507 10521
1559.6476 10544 10563 10576 10584 10590 10595 10600 10606 10614 10625 10636
1564.9509 10646 10653 10658 10661 10665 10669 10673 10678 10684 10690 10696
1570.2542 10703 10710 10718 10725 10732 10738 10744 10750 10755 10759 10764
1575.5575 10768 10773 10777 10782 10788 10796 10804 10812 10820 10826 10831
1580.8607 10833 10833 10832 10829 10825 10821 10816 10810 10803 10796 10788
1586.1641 10779 10769 10759 10748 10735 10722 10707 10691 10676 10661 10647
1591.4674 10635 10623 10612 10601 10590 10580 10570 10562 10554 10547 10539
1596.7706 10530 10521 10512 10504 10497 10489 10481 10473 10464 10456 10447
1602.0740 10438 10429 10421 10413 10406 10400 10393 10384 10374 10364 10353
1607.3772 10343 10333 10321 10309 10295 10281 10268 10257 10247 10238 10228
1612.6805 10216 10204 10190 10176 10163 10151 10138 10123 10105 10088 10073
1617.9838 10062 10052 10042 10030 10017 10002 9986 9970 9954 9938 9922 9910
1623.7692 9901 9893 9885 9875 9864 9851 9837 9823 9811 9801 9792 9784 9774
1630.0367 9763 9751 9738 9726 9714 9704 9694 9684 9674 9664 9654 9646 9642
1636.3042 9639 9636 9632 9627 9622 9617 9613 9608 9604 9599 9593 9585 9576
1642.5718 9567 9557 9548 9540 9533 9528 9528 9533 9543 9554 9559 9558 9554
1648.8392 9549 9543 9536 9528 9518 9507 9495 9486 9496 9536 9567 9572 9566
1655.1068 9559 9552 9547 9543 9542 9544 9547 9550 9553 9554 9553 9550 9548
1661.3743 9547 9550 9557 9567 9577 9585 9590 9593 9596 9598 9599 9599 9600
1667.6418 9602 9606 9614 9625 9635 9642 9649 9655 9662 9666 9668 9667 9665
1673.9093 9665 9672 9688 9710 9729 9739 9742 9743 9742 9743 9745 9750 9759
1680.1769 9769 9779 9786 9788 9786 9781 9774 9774 9795 9830 9854 9865 9869
1686.4443 9871 9872 9873 9875 9878 9884 9893 9904 9915 9925 9934 9939 9942
1692.7119 9944 9945 9946 9947 9949 9951 9955 9961 9966 9969 9970 9970 9970
1698.9794 9970 9975 9991 10011 10020 10020 10016 10013 10010 10008 10007 10007
1704.7648 10007 10007 10006 10005 10004 10004 10004 10005 10005 10007 10008
1710.0681 10009 10009 10009 10008 10006 10004 10001 9997 9992 9988 9985 9983
1715.8535 9983 9985 9988 9992 9997 9999 9998 9996 9993 9990 9988 9985 9982
1722.1210 9979 9975 9973 9974 9978 9984 9991 9996 9999 9999 9996 9991 9986
1728.3885 9981 9977 9975 9976 9978 9980 9981 9980 9978 9975 9971 9965 9960
1734.6560 9957 9956 9956 9956 9956 9957 9956 9954 9950 9946 9942 9939 9939
1740.9236 9938 9938 9937 9936 9934 9933 9932 9931 9931 9931 9931 9930 9928
1747.1910 9925 9921 9917 9913 9910 9906 9902 9900 9902 9908 9915 9920 9922
1753.4586 9922 9920 9917 9914 9914 9915 9919 9923 9925 9923 9918 9912 9906
1759.7261 9900 9895 9891 9889 9891 9895 9901 9907 9912 9915 9916 9915 9914
1765.9937 9911 9909 9906 9903 9901 9898 9896 9894 9892 9888 9884 9880 9877
1772.2611 9879 9887 9896 9904 9911 9916 9919 9920 9918 9914 9910 9905 9901
1778.5287 9897 9894 9892 9891 9892 9894 9897 9900 9902 9903 9904 9904 9903
1784.7961 9902 9903 9904 9906 9909 9912 9914 9916 9916 9915 9913 9908 9903
1791.0637 9897 9893 9892 9895 9900 9905 9908 9910 9911 9912 9912 9913 9913
1797.3312 9912 9909 9905 9900 9896 9892 9890 9889 9890 9893 9898 9905 9913
1803.5988 9920 9924 9925 9924 9920 9915 9910 9907 9905 9904 9904 9905 9906
1809.8662 9908 9910 9911 9910 9907 9903 9900 9900 9902 9905 9909 9911 9911
1816.1338 9911 9911 9913 9916 9919 9921 9922 9922 9920 9917 9913 9909 9904
1822.4012 9901 9900 9901 9904 9907 9909 9908 9904 9898 9894 9890 9889 9891
1828.6688 9895 9903 9911 9917 9918 9917 9915 9914 9913 9914 9915 9916 9917
1834.9363 9917 9918 9919 9923 9928 9933 9935 9932 9927 9922 9919 9922 9929
1841.2039 9937 9941 9940 9932 9921 9910 9904 9905 9908 9912 9914 9918 9922
1847.4713 9928 9934 9937 9939 9938 9936 9934 9933 9933 9933 9931 9927 9924
1853.7389 9921 9921 9924 9929 9934 9935 9933 9929 9924 9921 9920 9920 9921
1860.0063 9920 9919 9918 9920 9926 9933 9941 9946 9949 9948 9944 9939 9935
1866.2739 9933 9933 9934 9935 9932 9928 9923 9921 9925 9931 9938 9942 9944
1872.5414 9943 9941 9942 9945 9951 9957 9962 9965 9966 9966 9964 9961 9958
1878.8090 9956 9955 9954 9954 9952 9947 9939 9930 9921 9913 9908 9905 9904
1885.0764 9905 9908 9913 9921 9930 9938 9944 9947 9948 9944 9938 9930 9923
1891.3440 9917 9914 9915 9920 9926 9929 9927 9916 9899 9882 9872 9871 9881
1897.6115 9897 9914 9928 9935 9935 9931 9926 9923 9921 9920 9921 9922 9924
1903.8790 9927 9929 9929 9927 9924 9920 9917 9914 9912 9910 9912 9917 9925
1910.1465 9935 9942 9943 9939 9933 9931 9934 9942 9950 9954 9954 9951 9951
1916.4141 9957 9969 9985 9998 10003 9999 9989 9977 9961 9942 9922 9906 9899
1922.6815 9906 9923 9943 9957 9961 9958 9950 9939 9928 9917 9909 9906 9911
1928.9491 9922 9938 9955 9969 9981 9992 10003 10012 10017 10012 9997 9974 9947
1935.2166 9923 9906 9899 9904 9918 9940 9962 9982 9994 10000 10001 9999 9992
1941.4841 9981 9967 9955 9952 9962 9981 10005 10026 10038 10039 10033 10022
1947.2695 10014 10012 10015 10022 10028 10029 10024 10015 10005 9999 9999
1952.5728 10005 10012 10019 10026 10033 10043 10053 10063 10069 10070 10067
1957.8761 10062 10059 10063 10076 10099 10128 10155 10175 10183 10179 10168
1963.1793 10154 10140 10128 10114 10094 10064 10019 9960 9899 9852 9837 9859
1968.9647 9913 9981 10044 10089 10116 10134 10158 10194 10236 10267 10270
1974.2681 10241 10187 10128 10086 10072 10083 10104 10116 10108 10083 10054
1979.5713 10033 10025 10025 10021 10008 9989 9976 9980 10006 10053 10108 10158
1985.3567 10194 10210 10203 10174 10123 10056 9985 9926 9891 9883 9899 9928
1991.1421 9960 9985 9999 10001 9993 9977 9958 9943 9938 9951 9980 10021 10062
1997.4097 10094 10115 10125 10128 10126 10122 10117 10112 10111 10116 10124
2002.7129 10132 10133 10126 10108 10081 10046 10000 9945 9888 9841 9825 9850
2008.4983 9916 10008 10101 10170 10200 10193 10162 10127 10103 10097 10107
2013.8016 10126 10144 10151 10141 10109 10061 10011 9977 9968 9979 9993 9992
2019.5870 9968 9931 9903 9905 9949 10026 10115 10192 10239 10256 10252 10239
2025.3724 10222 10201 10175 10143 10106 10070 10038 10011 9990 9973 9965 9968
2031.1578 9987 10022 10071 10123 10168 10194 10192 10162 10111 10051 9994 9950
2036.9432 9927 9931 9962 10014 10076 10131 10162 10158 10121 10066 10010 9972
2042.7286 9955 9959 9974 9994 10013 10028 10033 10026 10006 9980 9957 9944
2048.5139 9943 9948 9951 9948 9940 9932 9927 9925 9924 9921 9918 9917 9919
2054.7815 9923 9922 9913 9897 9881 9873 9880 9900 9926 9947 9956 9952 9940
2061.0491 9928 9924 9929 9938 9945 9945 9937 9924 9911 9900 9894 9892 9894
2067.3167 9901 9913 9932 9956 9981 9999 10005 9994 9968 9934 9901 9879 9875
2073.5840 9888 9910 9935 9953 9958 9950 9929 9902 9875 9854 9845 9849 9865
2079.8516 9888 9910 9926 9934 9933 9925 9916 9910 9909 9912 9915 9914 9906
2086.1191 9893 9880 9873 9873 9880 9890 9897 9898 9892 9883 9873 9866 9863
2092.3867 9862 9862 9863 9864 9868 9874 9882 9890 9894 9894 9890 9886 9886
2098.6541 9892 9900 9906 9904 9892 9872 9853 9841 9842 9854 9871 9883 9885
2104.9216 9876 9864 9855 9852 9855 9859 9859 9854 9848 9844 9844 9846 9848
2111.1892 9848 9846 9846 9850 9859 9868 9874 9873 9866 9857 9850 9847 9849
2117.4568 9850 9850 9846 9841 9838 9840 9847 9856 9864 9868 9866 9861 9854
2123.7241 9845 9835 9825 9816 9810 9806 9805 9802 9799 9798 9804 9821 9849
2129.9917 9881 9909 9924 9926 9918 9904 9888 9873 9858 9847 9844 9849 9859
2136.2593 9868 9868 9860 9849 9843 9847 9859 9871 9878 9876 9870 9866 9869
2142.5269 9878 9887 9890 9884 9872 9859 9850 9850 9859 9873 9890 9905 9917
2148.7942 9926 9930 9929 9922 9907 9887 9868 9855 9857 9875 9904 9933 9953
2155.0618 9957 9947 9930 9914 9903 9896 9889 9880 9872 9868 9872 9883 9898
2161.3293 9918 9945 9984 10029 10067 10081 10058 10003 9936 9884 9867 9888
2167.1147 9933 9978 10005 10005 9985 9959 9943 9943 9958 9982 10004 10020
2172.9001 10026 10025 10021 10019 10021 10024 10022 10009 9981 9940 9895 9858
2178.6855 9841 9849 9879 9922 9965 9994 10005 9997 9977 9952 9928 9911 9904
2184.9531 9908 9922 9940 9952 9951 9933 9903 9872 9853 9853 9871 9900 9931
2191.2205 9955 9970 9977 9979 9978 9977 9978 9982 9990 9997 10001 9999 9990
2197.4880 9976 9959 9944 9930 9919 9910 9904 9902 9902 9905 9908 9911 9912
2203.7556 9909 9902 9892 9882 9873 9865 9857 9847 9840 9841 9856 9885 9922
2210.0232 9953 9969 9966 9951 9934 9925 9923 9924 9923 9914 9901 9890 9887
2216.2905 9896 9915 9941 9967 9988 10001 10007 10007 10004 10000 9997 9996
2222.0759 9997 10002 10008 10013 10013 10008 9999 9990 9986 9986 9990 9991
2227.8613 9987 9980 9974 9974 9982 9997 10011 10017 10009 9990 9966 9944 9932
2234.1289 9933 9947 9969 9992 10008 10014 10011 10004 9999 10001 10008 10015
2239.9143 10015 10003 9980 9951 9923 9901 9891 9894 9910 9935 9966 9998 10025
2246.1819 10043 10051 10050 10040 10026 10009 9992 9978 9970 9971 9978 9988
2251.9673 9994 9992 9981 9967 9955 9949 9951 9959 9967 9971 9970 9966 9961
2258.2349 9958 9959 9965 9975 9986 9997 10005 10010 10011 10009 10004 10000
2264.0203 9997 9998 10004 10013 10023 10029 10030 10024 10014 10003 9994 9988
2269.8057 9987 9990 9995 10002 10008 10010 10009 10005 10001 9998 9999 10000
2275.5911 10000 9995 9987 9977 9971 9968 9970 9974 9977 9980 9982 9984 9987
2281.8584 9989 9990 9988 9986 9982 9978 9976 9974 9974 9973 9973 9973 9972
2288.1260 9970 9969 9967 9965 9965 9965 9966 9968 9970 9972 9974 9977 9980
2294.3936 9983 9984 9981 9975 9966 9957 9950 9949 9953 9961 9971 9977 9976
2300.6611 9966 9949 9931 9918 9915 9921 9933 9945 9954 9958 9960 9960 9960
2306.9285 9961 9963 9963 9962 9960 9957 9953 9950 9949 9953 9961 9971 9981
2313.1960 9988 9992 9995 9996 9997 9999 9999 9998 9997 9994 9990 9984 9976
2319.4636 9964 9953 9944 9939 9939 9944 9952 9960 9968 9974 9975 9974 9969
2325.7312 9964 9962 9963 9968 9975 9980 9982 9979 9973 9966 9962 9963 9970
2331.9985 9980 9989 9994 9994 9993 9992 9994 9999 10006 10013 10020 10027
2337.7839 10033 10039 10041 10038 10031 10022 10012 10005 10001 10000 10001
2343.0874 10003 10003 10000 9992 9983 9975 9974 9979 9987 9993 9994 9989 9980
2349.3547 9968 9956 9949 9949 9959 9976 9997 10017 10032 10040 10039 10035
2355.1401 10034 10041 10057 10078 10097 10111 10121 10134 10153 10174 10190
2360.4436 10194 10182 10159 10134 10111 10094 10084 10079 10079 10085 10094
2365.7468 10103 10106 10100 10085 10063 10039 10020 10009 10004 10004 10003
2371.0500 9999 9991 9980 9969 9963 9962 9967 9976 9985 9991 9994 9993 9988
2377.3176 9982 9976 9971 9968 9967 9966 9965 9963 9962 9963 9965 9967 9969
2383.5852 9969 9966 9963 9958 9954 9952 9952 9954 9958 9964 9971 9977 9981
2389.8525 9982 9981 9978 9974 9971 9969 9966 9964 9962 9961 9960 9960 9960
2396.1201 9960 9959 9958 9958 9959 9962 9967 9973 9978 9982 9985 9987 9987
2402.3877 9987 9984 9981 9977 9974 9973 9973 9973 9973 9973 9973 9974 9977
2408.6553 9979 9982 9985 9986 9987 9988 9989 9990 9992 9994 9995 9995 9992
2414.9226 9989 9986 9985 9986 9988 9989 9988 9985 9981 9977 9972 9968 9965
2421.1902 9962 9963 9967 9973 9980 9986 9990 9989 9987 9982 9977 9973 9969
2427.4578 9966 9965 9966 9968 9969 9970 9970 9968 9967 9968 9971 9977 9984
2433.7253 9989 9989 9986 9979 9972 9967 9967 9970 9976 9980 9979 9973 9964
2439.9927 9953 9943 9938 9937 9939 9943 9948 9951 9953 9953 9952 9951 9950
2446.2603 9951 9953 9956 9959 9961 9962 9961 9960 9960 9960 9960 9958 9956
2452.5278 9951 9947 9944 9942 9942 9944 9946 9949 9953 9958 9964 9969 9973
2458.7954 9975 9974 9970 9964 9957 9949 9943 9939 9939 9943 9950 9958 9965
2465.0627 9970 9971 9969 9963 9956 9948 9943 9940 9941 9943 9946 9948 9947
2471.3303 9946 9945 9947 9951 9956 9958 9956 9949 9940 9933 9931 9934 9941
2477.5979 9949 9954 9956 9954 9949 9944 9940 9937 9935 9934 9932 9931 9931
2483.8655 9932 9936 9941 9946 9950 9950 9948 9943 9936 9929 9923 9917 9914
2490.1328 9913 9915 9917 9919 9919 9918 9915 9913 9910 9908 9907 9908 9913
2496.4004 9922 9932 9942 9947 9946 9940 9934 9929 9926 9923 9920 9916 9911
2502.6680 9907 9906 9907 9910 9911 9910 9908 9906 9905 9906 9908 9913 9918
2508.9355 9923 9924 9922 9915 9904 9891 9880 9872 9871 9875 9883 9891 9897
2515.2029 9900 9900 9899 9900 9903 9906 9907 9905 9901 9896 9891 9889 9887
2521.4705 9885 9883 9880 9879 9879 9880 9883 9887 9890 9893 9894 9894 9892
2527.7380 9888 9883 9878 9875 9875 9878 9882 9884 9884 9882 9879 9876 9875
2534.0056 9875 9874 9874 9873 9874 9876 9879 9881 9880 9877 9873 9869 9869
2540.2729 9871 9877 9883 9888 9890 9887 9880 9871 9862 9855 9852 9854 9859
2546.5405 9866 9872 9876 9878 9879 9877 9874 9870 9866 9864 9866 9870 9877
2552.8081 9883 9886 9885 9879 9871 9863 9859 9858 9860 9860 9857 9850 9842
2559.0757 9836 9834 9837 9844 9853 9860 9864 9864 9862 9860 9859 9860 9861
2565.3430 9862 9864 9864 9865 9864 9864 9864 9864 9864 9864 9866 9868 9870
2571.6106 9872 9874 9875 9877 9877 9876 9872 9866 9861 9858 9858 9862 9869
2577.8782 9875 9880 9882 9882 9881 9880 9879 9877 9874 9870 9868 9868 9869
2584.1458 9871 9874 9875 9877 9879 9883 9887 9891 9895 9898 9901 9902 9902
2590.4133 9899 9895 9892 9890 9890 9892 9893 9894 9895 9897 9899 9902 9904
2596.6807 9904 9902 9899 9895 9892 9889 9887 9886 9888 9892 9896 9899 9900
2602.9482 9899 9897 9896 9898 9902 9908 9913 9915 9914 9909 9902 9897 9894
2609.2158 9896 9902 9907 9910 9909 9905 9901 9898 9896 9896 9897 9898 9899
2615.4834 9901 9904 9910 9914 9917 9916 9911 9903 9897 9892 9890 9890 9891
2621.7507 9892 9893 9895 9898 9903 9909 9913 9916 9917 9917 9916 9915 9914
2628.0183 9914 9913 9913 9914 9915 9915 9915 9912 9908 9902 9897 9894 9893
2634.2859 9894 9896 9900 9904 9907 9909 9910 9911 9911 9911 9912 9913 9913
2640.5535 9913 9912 9912 9911 9911 9911 9911 9910 9910 9910 9910 9910 9910
2646.8208 9910 9910 9909 9908 9908 9907 9908 9908 9908 9908 9907 9907 9908
2653.0884 9910 9912 9914 9915 9915 9914 9912 9911 9910 9909 9909 9910 9912
2659.3560 9914 9916 9918 9918 9917 9915 9914 9914 9915 9916 9919 9920 9921
2665.6235 9920 9918 9915 9913 9911 9910 9910 9911 9913 9915 9917 9918 9918
2671.8909 9918 9918 9918 9919 9918 9917 9916 9915 9915 9916 9918 9920 9922
2678.1584 9922 9922 9920 9917 9913 9910 9909 9909 9911 9914 9916 9917 9916
2684.4260 9914 9912 9911 9911 9913 9915 9917 9917 9916 9915 9915 9915 9915
2690.6936 9915 9915 9915 9916 9916 9917 9917 9917 9917 9916 9915 9913 9912
2696.9609 9911 9910 9909 9909 9909 9909 9907 9904 9901 9899 9899 9901 9905
2703.2285 9908 9911 9912 9913 9911 9909 9906 9903 9900 9897 9895 9894 9893
2709.4961 9891 9890 9889 9890 9891 9892 9893 9891 9888 9883 9877 9871 9866
2715.7637 9863 9863 9863 9864 9864 9863 9862 9859 9858 9856 9854 9852 9851
2722.0310 9851 9851 9853 9855 9855 9853 9849 9845 9841 9839 9838 9839 9841
2728.2986 9842 9844 9844 9844 9843 9841 9839 9838 9837 9837 9838 9838 9836
2734.5662 9833 9829 9824 9820 9817 9816 9815 9816 9817 9818 9817 9816 9814
2740.8337 9812 9809 9807 9805 9804 9804 9805 9806 9807 9808 9808 9808 9807
2747.1011 9804 9801 9798 9795 9792 9789 9787 9785 9782 9780 9777 9776 9774
2753.3687 9774 9774 9774 9774 9774 9774 9774 9774 9775 9774 9772 9770 9768
2759.6362 9766 9766 9767 9768 9769 9768 9766 9762 9756 9750 9745 9742 9741
2765.9038 9742 9745 9747 9748 9747 9746 9744 9742 9739 9736 9733 9731 9730
2772.1711 9730 9730 9730 9729 9728 9726 9724 9722 9720 9718 9716 9714 9713
2778.4387 9713 9714 9715 9714 9711 9707 9703 9700 9699 9699 9699 9699 9698
2784.7063 9696 9694 9693 9693 9693 9694 9695 9695 9695 9694 9692 9690 9688
2790.9739 9685 9681 9676 9672 9669 9667 9667 9669 9672 9673 9674 9674 9673
2797.2412 9672 9671 9670 9667 9664 9661 9661 9663 9665 9668 9669 9667 9664
2803.5088 9662 9660 9659 9658 9657 9654 9650 9647 9643 9640 9638 9637 9636
2809.7764 9636 9637 9637 9637 9636 9635 9636 9637 9640 9644 9649 9653 9655
2816.0439 9654 9650 9645 9639 9635 9632 9632 9632 9632 9632 9631 9631 9633
2822.3113 9635 9638 9640 9641 9641 9638 9636 9635 9635 9636 9639 9641 9643
2828.5789 9644 9644 9643 9641 9640 9639 9638 9638 9638 9639 9640 9640 9641
2834.8464 9641 9640 9638 9636 9635 9635 9635 9637 9637 9637 9637 9636 9637
2841.1140 9637 9638 9638 9636 9632 9629 9627 9626 9627 9629 9631 9632 9632
2847.3813 9632 9633 9633 9633 9633 9633 9633 9632 9633 9634 9635 9635 9635
2853.6489 9634 9632 9630 9629 9628 9627 9627 9625 9623 9621 9620 9620 9620
2859.9165 9620 9618 9614 9609 9604 9600 9599 9599 9599 9600 9600 9600 9598
2866.1841 9597 9594 9589 9583 9576 9571 9567 9566 9568 9570 9572 9570 9567
2872.4514 9561 9554 9548 9543 9540 9538 9538 9539 9541 9543 9544 9543 9541
2878.7190 9538 9535 9531 9528 9525 9524 9526 9530 9535 9540 9543 9544 9545
2884.9866 9547 9548 9551 9553 9555 9557 9561 9566 9571 9576 9579 9580 9579
2891.2542 9577 9575 9573 9572 9573 9574 9576 9580 9585 9589 9592 9593 9591
2897.5215 9587 9583 9578 9574 9569 9563 9559 9557 9558 9560 9564 9565 9565
2903.7891 9563 9560 9559 9559 9559 9559 9558 9556 9555 9556 9559 9563 9569
2910.0566 9575 9581 9586 9590 9593 9595 9595 9593 9589 9584 9578 9573 9569
2916.3242 9566 9565 9566 9567 9569 9572 9574 9577 9579 9581 9581 9580 9577
2922.5916 9573 9569 9567 9565 9563 9560 9556 9550 9546 9542 9539 9537 9534
2928.8591 9532 9530 9528 9526 9524 9520 9513 9504 9494 9484 9474 9464 9453
2935.1267 9438 9418 9394 9367 9340 9315 9290 9268 9244 9219 9192 9163 9133
2941.3943 9106 9083 9065 9053 9045 9042 9044 9051 9062 9075 9090 9106 9122
2947.6616 9138 9155 9174 9194 9217 9240 9264 9288 9312 9334 9356 9378 9399
2953.9292 9419 9438 9454 9466 9475 9481 9486 9491 9496 9502 9509 9515 9519
2960.1968 9523 9527 9530 9533 9536 9538 9538 9537 9534 9531 9527 9523 9519
2966.4644 9516 9514 9513 9513 9514 9513 9509 9502 9493 9485 9478 9472 9467
2972.7317 9461 9456 9450 9445 9442 9438 9433 9426 9418 9408 9396 9384 9370
2978.9993 9355 9339 9321 9302 9280 9256 9229 9199 9168 9137 9107 9079 9049
2985.2668 9017 8982 8943 8902 8861 8821 8782 8747 8712 8678 8644 8609 8575
2991.5344 8542 8512 8486 8463 8444 8429 8419 8413 8413 8419 8431 8450 8474
2997.8018 8502 8533 8566 8601 8636 8672 8706 8737 8766 8792 8817 8842 8870
3004.0693 8899 8930 8962 8997 9033 9072 9113 9155 9197 9238 9277 9315 9352
3010.3369 9386 9417 9443 9465 9485 9503 9520 9536 9551 9562 9571 9577 9582
3016.6045 9587 9591 9594 9597 9600 9602 9605 9607 9609 9609 9608 9605 9601
3022.8718 9598 9595 9594 9594 9595 9596 9596 9593 9590 9585 9581 9578 9577
3029.1394 9575 9573 9570 9566 9562 9558 9555 9550 9546 9543 9541 9540 9538
3035.4070 9535 9531 9525 9519 9514 9510 9507 9503 9498 9492 9486 9481 9479
3041.6746 9478 9479 9480 9481 9480 9477 9472 9467 9462 9458 9455 9453 9451
3047.9419 9449 9446 9443 9439 9434 9428 9422 9417 9415 9415 9416 9416 9415
3054.2095 9411 9406 9402 9401 9402 9405 9405 9401 9392 9380 9367 9358 9353
3060.4771 9351 9351 9352 9351 9350 9347 9342 9335 9328 9321 9316 9315 9317
3066.7446 9322 9326 9328 9327 9322 9315 9307 9301 9296 9293 9291 9287 9283
3073.0120 9277 9272 9267 9264 9262 9261 9260 9259 9257 9254 9251 9247 9243
3079.2795 9237 9232 9226 9219 9213 9208 9204 9202 9202 9203 9202 9199 9192
3085.5471 9184 9177 9171 9168 9165 9161 9156 9149 9143 9139 9138 9139 9141
3091.8147 9141 9137 9130 9121 9113 9107 9105 9106 9108 9109 9107 9101 9092
3098.0820 9083 9077 9073 9073 9073 9071 9065 9056 9045 9035 9026 9020 9014
3104.3496 9009 9003 8996 8991 8987 8985 8986 8988 8990 8991 8989 8984 8976
3110.6172 8966 8957 8948 8942 8937 8934 8931 8927 8924 8920 8916 8912 8907
3116.8848 8901 8892 8881 8869 8858 8852 8850 8851 8852 8853 8851 8846 8839
3123.1521 8832 8824 8817 8809 8800 8791 8782 8772 8763 8756 8751 8749 8748
3129.4197 8749 8749 8749 8747 8742 8736 8727 8716 8703 8690 8678 8669 8662
3135.6873 8657 8652 8645 8638 8631 8626 8622 8620 8618 8613 8605 8595 8582
3141.9548 8569 8558 8551 8548 8547 8547 8544 8538 8530 8520 8511 8502 8494
3148.2222 8485 8475 8463 8452 8444 8440 8439 8440 8441 8440 8436 8429 8419
3154.4897 8406 8392 8380 8370 8363 8358 8354 8348 8341 8331 8321 8312 8304
3160.7573 8298 8294 8290 8286 8279 8270 8260 8249 8238 8228 8220 8211 8203
3167.0249 8194 8185 8175 8167 8159 8153 8146 8140 8133 8124 8114 8104 8094
3173.2922 8085 8078 8071 8063 8053 8042 8030 8020 8012 8006 8000 7993 7983
3179.5598 7971 7959 7949 7943 7939 7935 7930 7923 7915 7907 7899 7891 7881
3185.8274 7870 7857 7845 7835 7829 7826 7825 7822 7816 7807 7795 7783 7772
3192.0950 7765 7759 7754 7749 7741 7732 7722 7713 7706 7700 7693 7685 7673
3198.3623 7659 7642 7625 7611 7600 7593 7589 7586 7582 7576 7568 7559 7550
3204.6299 7543 7538 7534 7529 7522 7513 7503 7492 7482 7472 7463 7454 7445
3210.8975 7436 7427 7420 7415 7412 7410 7407 7401 7392 7380 7368 7356 7347
3217.1650 7342 7338 7336 7335 7333 7330 7327 7322 7316 7310 7304 7297 7291
3223.4324 7285 7280 7274 7269 7263 7256 7248 7240 7230 7220 7210 7201 7194
3229.7000 7189 7185 7182 7179 7174 7171 7168 7169 7171 7174 7175 7173 7168
3235.9675 7161 7155 7150 7146 7142 7138 7133 7127 7121 7117 7114 7112 7110
3242.2351 7109 7108 7106 7104 7100 7095 7091 7088 7087 7089 7094 7099 7104
3248.5024 7107 7106 7103 7096 7089 7083 7077 7073 7069 7066 7064 7064 7065
3254.7700 7067 7069 7070 7071 7072 7074 7077 7081 7084 7086 7085 7083 7082
3261.0376 7081 7082 7083 7083 7082 7081 7079 7078 7078 7079 7079 7079 7077
3267.3052 7076 7076 7080 7086 7094 7101 7105 7105 7103 7100 7097 7097 7099
3273.5725 7104 7110 7117 7123 7129 7132 7134 7134 7135 7136 7140 7144 7149
3279.8401 7154 7158 7163 7168 7173 7178 7182 7185 7187 7188 7190 7192 7195
3286.1077 7198 7200 7200 7199 7197 7197 7199 7204 7213 7226 7239 7251 7258
3292.3752 7261 7260 7257 7256 7257 7262 7270 7278 7284 7288 7291 7292 7294
3298.6426 7297 7300 7303 7305 7306 7307 7309 7311 7313 7316 7319 7320 7321
3304.9102 7322 7324 7328 7333 7340 7347 7355 7363 7370 7376 7382 7385 7389
3311.1777 7391 7394 7398 7402 7405 7407 7407 7406 7405 7407 7411 7417 7423
3317.4453 7427 7428 7427 7426 7426 7427 7429 7431 7431 7431 7432 7436 7444
3323.7126 7455 7468 7479 7488 7493 7495 7494 7493 7492 7491 7492 7491 7491
3329.9802 7490 7490 7491 7493 7496 7498 7500 7501 7500 7498 7495 7494 7495
3336.2478 7500 7508 7518 7528 7533 7534 7531 7527 7525 7525 7526 7530 7533
3342.5154 7536 7539 7541 7544 7545 7546 7545 7544 7542 7540 7538 7536 7536
3348.7827 7537 7541 7546 7553 7561 7570 7577 7582 7585 7585 7583 7582 7581
3355.0503 7581 7582 7584 7585 7587 7588 7589 7589 7588 7587 7586 7587 7591
3361.3179 7598 7607 7615 7620 7621 7619 7616 7614 7615 7619 7624 7628 7629
3367.5854 7628 7627 7627 7630 7635 7643 7651 7657 7662 7664 7666 7667 7668
3373.8528 7669 7671 7673 7675 7679 7684 7690 7694 7697 7697 7697 7698 7702
3380.1204 7707 7714 7722 7728 7735 7741 7747 7752 7757 7759 7760 7758 7757
3386.3879 7756 7757 7758 7760 7763 7766 7771 7776 7783 7790 7796 7802 7809
3392.6555 7818 7827 7837 7846 7852 7855 7853 7850 7845 7842 7842 7845 7851
3398.9229 7859 7869 7880 7891 7902 7911 7917 7919 7918 7916 7917 7920 7927
3405.1904 7935 7942 7947 7948 7949 7952 7959 7970 7983 7994 8003 8008 8012
3411.4580 8015 8019 8024 8030 8036 8042 8047 8053 8060 8066 8071 8075 8078
3417.7256 8081 8084 8088 8094 8101 8112 8125 8139 8152 8162 8169 8171 8172
3423.9929 8173 8176 8180 8186 8193 8199 8205 8211 8219 8228 8238 8247 8255
3430.2605 8260 8263 8265 8266 8268 8271 8274 8278 8283 8288 8294 8303 8313
3436.5281 8325 8339 8351 8362 8369 8373 8377 8380 8386 8394 8403 8412 8422
3442.7957 8430 8437 8443 8447 8450 8452 8456 8462 8470 8480 8489 8496 8501
3449.0630 8507 8513 8521 8529 8538 8546 8554 8562 8572 8583 8594 8606 8616
3455.3306 8626 8634 8641 8648 8654 8661 8669 8678 8685 8689 8691 8691 8691
3461.5981 8693 8700 8709 8721 8732 8741 8748 8754 8762 8771 8783 8795 8807
3467.8657 8817 8826 8832 8837 8841 8845 8850 8857 8864 8870 8876 8882 8890
3474.1331 8901 8914 8929 8940 8949 8954 8959 8965 8973 8981 8987 8992 8995
3480.4006 8999 9006 9015 9025 9034 9042 9050 9057 9065 9073 9080 9085 9089
3486.6682 9093 9098 9103 9109 9115 9121 9128 9135 9144 9153 9164 9174 9182
3492.9358 9190 9198 9206 9215 9223 9230 9234 9237 9238 9241 9246 9254 9264
3499.2031 9275 9284 9291 9296 9300 9307 9316 9328 9341 9352 9359 9364 9368
3505.4707 9371 9375 9380 9385 9390 9395 9399 9403 9408 9414 9420 9427 9433
3511.7383 9437 9440 9442 9444 9445 9448 9451 9455 9460 9468 9476 9485 9494
3518.0059 9501 9509 9515 9520 9522 9521 9518 9514 9513 9518 9529 9545 9559
3524.2732 9568 9571 9570 9566 9562 9561 9563 9567 9574 9580 9586 9591 9598
3530.5408 9605 9614 9623 9631 9636 9638 9637 9637 9637 9641 9647 9655 9661
3536.8083 9663 9663 9661 9659 9659 9661 9665 9670 9675 9681 9687 9694 9700
3543.0759 9706 9708 9709 9707 9706 9706 9709 9715 9723 9732 9738 9742 9744
3549.3433 9743 9742 9741 9741 9744 9749 9757 9765 9773 9778 9781 9781 9780
3555.6108 9778 9778 9778 9780 9784 9788 9793 9798 9801 9804 9806 9808 9812
3561.8784 9816 9822 9827 9830 9833 9835 9839 9843 9847 9848 9843 9833 9823
3568.1460 9815 9813 9816 9822 9831 9839 9845 9849 9850 9850 9851 9854 9860
3574.4136 9868 9874 9878 9878 9876 9872 9869 9867 9867 9868 9870 9873 9874
3580.6809 9876 9877 9878 9879 9880 9881 9882 9883 9885 9888 9892 9894 9894
3586.9485 9891 9888 9890 9897 9907 9917 9924 9929 9932 9935 9936 9935 9930
3593.2161 9923 9914 9908 9908 9915 9926 9939 9951 9961 9967 9970 9968 9962
3599.4836 9953 9946 9942 9944 9950 9956 9960 9962 9962 9962 9962 9965 9969
3605.7510 9974 9978 9982 9987 9993 9999 10003 10002 9996 9988 9980 9976 9976
3612.0186 9980 9986 9990 9988 9983 9978 9976 9979 9984 9990 9994 9995 9994
3618.2861 9991 9989 9988 9989 9992 9996 10001 10005 10008 10007 10002 9994
3624.0715 9987 9983 9983 9987 9994 10003 10011 10019 10022 10016 10002 9991
3629.8569 9987 9990 9997 10004 10010 10014 10017 10018 10018 10016 10014 10011
3635.6423 10011 10013 10018 10024 10029 10031 10029 10023 10015 10007 10000
3640.9456 9996 9995 9998 10002 10007 10009 10009 10006 10002 10000 10000 10005
3646.7310 10012 10019 10021 10016 10008 9999 9995 9998 10008 10020 10030 10036
3652.5164 10038 10035 10028 10018 10007 9996 9990 9990 9994 10000 10004 10008
3658.3018 10011 10014 10016 10018 10020 10023 10025 10028 10029 10027 10023
3663.6050 10018 10014 10013 10016 10022 10029 10035 10037 10034 10024 10011
3668.9084 9997 9989 9990 10000 10012 10022 10028 10032 10034 10036 10036 10035
3674.6938 10029 10019 10010 10004 10002 10001 10000 10001 10004 10008 10013
3679.9971 10018 10022 10025 10027 10028 10028 10027 10025 10022 10019 10017
3685.3003 10016 10016 10015 10011 10005 9998 9996 10000 10006 10012 10013
3690.6035 10012 10011 10014 10021 10028 10033 10034 10032 10029 10028 10028
3695.9070 10029 10028 10025 10019 10013 10009 10009 10012 10015 10016 10015
3701.2102 10012 10010 10012 10017 10022 10025 10027 10028 10030 10034 10040
3706.5134 10045 10048 10047 10043 10036 10029 10024 10021 10017 10013 10011
3711.8167 10014 10021 10029 10033 10032 10028 10023 10018 10015 10012 10008
3717.1201 10002 9997 9993 9995 10002 10012 10023 10030 10034 10035 10034 10032
3722.9055 10030 10028 10025 10022 10019 10018 10019 10023 10029 10035 10039
3728.2087 10039 10036 10029 10021 10014 10011 10015 10024 10033 10036 10030
3733.5120 10017 10002 9990 9987 9993 10005 10015 10021 10024 10026 10027 10028
3739.2974 10030 10032 10036 10040 10044 10048 10053 10060 10072 10087 10098
3744.6006 10092 10072 10052 10035 10021 10007 9994 9983 9979 9987 10006 10026
3750.3860 10042 10048 10046 10036 10026 10018 10014 10013 10013 10015 10019
3755.6895 10024 10029 10033 10035 10034 10031 10027 10023 10020 10019 10020
3760.9927 10020 10019 10016 10012 10009 10009 10013 10021 10029 10034 10033
3766.2959 10028 10022 10017 10014 10015 10019 10024 10030 10032 10032 10030
3771.5991 10028 10026 10025 10024 10024 10025 10026 10029 10031 10032 10031
3776.9026 10028 10024 10020 10018 10022 10032 10043 10052 10055 10054 10047
3782.2058 10038 10026 10014 10005 10001 10003 10010 10019 10026 10032 10035
3787.5090 10037 10037 10037 10036 10034 10034 10035 10037 10042 10046 10049
3792.8123 10049 10046 10041 10036 10032 10029 10029 10031 10034 10034 10033
3798.1157 10029 10023 10018 10013 10012 10018 10030 10040 10043 10039 10033
3803.4189 10029 10027 10027 10026 10023 10018 10011 10007 10008 10014 10020
3808.7222 10024 10027 10028 10027 10026 10025 10025 10026 10027 10027 10025
3814.0254 10019 10009 9995 9980 9972 9973 9979 9987 9995 10002 10010 10017
3819.8108 10023 10026 10026 10026 10030 10036 10043 10049 10053 10054 10053
3825.1143 10049 10044 10038 10031 10026 10021 10018 10015 10013 10011 10009
3830.4175 10009 10010 10012 10016 10020 10023 10026 10028 10029 10030 10031
3835.7207 10032 10034 10037 10039 10037 10029 10018 10007 10001 10002 10008
3841.0239 10016 10022 10025 10025 10024 10024 10025 10025 10024 10022 10020
3846.3274 10020 10023 10029 10034 10040 10044 10046 10047 10045 10039 10025
3851.6306 10004 9980 9962 9962 9976 9990 9994 9992 9991 9994 10002 10012 10022
3857.8982 10028 10030 10028 10023 10017 10010 10002 9995 9992 9994 9999 10006
3863.6836 10011 10012 10010 10007 10007 10011 10015 10017 10017 10014 10007
3868.9868 10000 9997 10002 10010 10015 10018 10017 10014 10008 10003 10000
3874.2900 10003 10009 10016 10021 10024 10024 10024 10023 10023 10023 10022
3879.5933 10020 10016 10013 10011 10011 10014 10019 10024 10029 10035 10039
3884.8967 10042 10044 10043 10040 10035 10030 10025 10022 10019 10016 10014
3890.2000 10012 10010 10011 10015 10021 10027 10033 10038 10041 10041 10039
3895.5032 10034 10028 10021 10016 10012 10010 10009 10007 10003 9999 9997 9996
3901.2886 9997 9998 9999 9999 9999 9999 10000 10001 10003 10005 10008 10012
3907.0740 10016 10020 10022 10024 10026 10028 10029 10030 10028 10025 10021
3912.3772 10019 10019 10022 10025 10027 10027 10026 10023 10021 10020 10021
3917.6807 10023 10024 10024 10023 10020 10018 10016 10015 10015 10015 10015
3922.9839 10014 10013 10011 10010 10010 10012 10014 10017 10019 10021 10020
3928.2871 10017 10012 10006 10000 9995 9992 9991 9992 9996 10001 10007 10012
3934.0725 10016 10018 10019 10018 10017 10016 10014 10013 10011 10011 10011
3939.3757 10013 10016 10019 10023 10027 10029 10028 10025 10020 10017 10016
3944.6792 10018 10022 10026 10029 10029 10026 10022 10018 10016 10016 10017
3949.9824 10019 10018 10016 10013 10009 10007 10008 10012 10018 10023 10024
3955.2856 10020 10013 10006 10001 10001 10004 10011 10018 10025 10031 10035
3960.5889 10037 10036 10033 10029 10026 10027 10029 10033 10036 10038 10039
3965.8923 10040 10042 10042 10041 10037 10031 10025 10022 10022 10025 10027
3971.1956 10028 10026 10022 10016 10011 10007 10006 10007 10011 10016 10022
3976.4988 10026 10029 10028 10024 10019 10013 10008 10006 10007 10009 10012
3981.8020 10015 10017 10016 10013 10008 10004 10002 10003 10006 10012 10017
3987.1055 10021 10023 10023 10021 10019 10017 10016 10015 10014 10013 10012
3992.4087 10011 10010 10008 10006 10005 10005 10007 10010 10014 10017 10018
3997.7119 10017 10014 10010 10007 10005 10005
##END= 
