##TITLE= INC375
##JCAMP-DX= 4.24
##DATA TYPE= INFRARED SPECTRUM
##ORIGIN= JASCO
##OWNER= 
##DATE= 22/04/14
##TIME= 12:36:34
##SPECTROMETER/DATA SYSTEM= 
##RESOLUTION= 
##DELTAX=   0.48211674
##XUNITS= 1/CM
##YUNITS= TRANSMITTANCE
##XFACTOR= 1.00000
##YFACTOR= 0.0001
##FIRSTX=   599.7532
##LASTX=  4000.1226
##NPOINTS=     7054
##FIRSTY=      0.64062
##MAXY=      1.03030
##MINY=      0.15108
##XYDATA= (X++(Y..Y))
599.7532 6406 6406 6405 6403 6394 6376 6346 6307 6263 6222 6192 6174 6167 6164
606.5029 6159 6148 6132 6113 6091 6068 6042 6016 5995 5981 5977 5977 5974 5959
613.2525 5930 5887 5834 5774 5711 5650 5599 5571 5571 5598 5639 5678 5704 5718
620.0021 5725 5731 5738 5739 5725 5688 5626 5547 5464 5398 5362 5361 5390 5438
626.7518 5492 5546 5594 5633 5657 5657 5629 5574 5501 5423 5351 5289 5238 5197
633.5014 5166 5146 5139 5140 5144 5143 5130 5107 5077 5047 5021 4998 4974 4946
640.2510 4912 4878 4853 4843 4850 4864 4871 4857 4819 4764 4706 4658 4626 4605
647.0007 4585 4555 4512 4459 4404 4352 4300 4243 4176 4101 4024 3952 3886 3820
653.7503 3747 3666 3583 3509 3451 3409 3374 3334 3277 3204 3117 3026 2935 2843
660.4999 2745 2638 2518 2391 2260 2130 2002 1882 1775 1694 1647 1640 1678 1773
667.2496 1959 2293 2765 3171 3457 3743 4090 4494 4919 5309 5613 5806 5900 5928
673.9992 5915 5864 5765 5612 5418 5213 5025 4865 4720 4562 4369 4139 3890 3651
680.7488 3444 3274 3133 3013 2910 2837 2810 2846 2953 3128 3359 3623 3891 4128
687.4985 4306 4410 4439 4412 4359 4307 4271 4249 4222 4169 4071 3930 3760 3583
694.2481 3415 3255 3099 2939 2781 2635 2511 2410 2325 2240 2149 2051 1951 1854
700.9977 1763 1678 1602 1543 1511 1513 1547 1606 1679 1764 1872 2024 2238 2524
707.7474 2867 3236 3591 3907 4177 4417 4654 4911 5195 5502 5822 6146 6468 6788
714.4970 7104 7415 7712 7988 8231 8434 8594 8713 8798 8859 8902 8931 8950 8966
721.2466 8984 9010 9044 9080 9110 9124 9120 9101 9076 9053 9036 9024 9013 9002
727.9963 8990 8978 8968 8960 8952 8942 8931 8924 8923 8931 8944 8960 8973 8982
734.7459 8987 8992 8998 9007 9017 9027 9036 9046 9057 9071 9091 9120 9162 9218
741.4955 9288 9371 9459 9547 9628 9702 9769 9836 9905 9979 10053 10121 10178
747.7631 10223 10255 10278 10295 10303 10299 10278 10237 10176 10100 10018
753.0663 9938 9862 9794 9729 9668 9612 9565 9531 9509 9491 9465 9420 9357 9290
759.8160 9240 9223 9246 9304 9382 9458 9514 9538 9529 9490 9426 9339 9235 9122
766.5656 9012 8913 8830 8762 8698 8628 8542 8436 8314 8185 8057 7938 7829 7729
773.3152 7637 7553 7477 7409 7348 7288 7229 7168 7111 7063 7029 7009 6998 6988
780.0649 6971 6946 6915 6881 6850 6823 6800 6778 6755 6729 6703 6677 6651 6625
786.8145 6597 6566 6529 6489 6447 6406 6368 6333 6300 6266 6229 6185 6136 6083
793.5641 6028 5975 5922 5867 5805 5732 5649 5557 5461 5367 5276 5187 5100 5011
800.3138 4921 4829 4738 4652 4575 4509 4457 4422 4405 4406 4427 4467 4525 4595
807.0634 4667 4730 4771 4782 4762 4722 4685 4682 4746 4897 5135 5435 5754 6045
813.8130 6273 6423 6502 6532 6536 6533 6533 6540 6555 6578 6610 6649 6692 6735
820.5627 6777 6816 6853 6888 6921 6948 6968 6979 6981 6977 6969 6957 6943 6929
827.3123 6916 6907 6903 6901 6901 6898 6893 6888 6886 6888 6897 6909 6923 6934
834.0620 6941 6943 6944 6943 6943 6944 6947 6950 6954 6958 6962 6965 6967 6968
840.8116 6968 6965 6960 6952 6942 6930 6919 6907 6896 6883 6867 6847 6823 6797
847.5612 6772 6750 6731 6715 6701 6687 6671 6650 6624 6594 6563 6534 6506 6480
854.3109 6453 6425 6395 6367 6344 6330 6326 6331 6344 6360 6376 6392 6403 6410
861.0605 6413 6413 6412 6413 6413 6413 6409 6402 6393 6382 6372 6363 6354 6344
867.8101 6332 6319 6305 6291 6276 6261 6244 6227 6210 6192 6173 6156 6139 6122
874.5598 6105 6088 6069 6047 6024 5999 5974 5952 5932 5914 5897 5877 5854 5830
881.3094 5804 5779 5756 5733 5710 5685 5657 5627 5597 5567 5537 5504 5467 5427
888.0590 5386 5345 5309 5277 5249 5224 5201 5178 5156 5137 5123 5113 5106 5099
894.8087 5091 5079 5063 5043 5019 4992 4963 4932 4899 4867 4835 4803 4771 4738
901.5583 4704 4669 4634 4599 4564 4528 4491 4452 4412 4372 4333 4293 4253 4212
908.3079 4172 4131 4089 4048 4007 3967 3929 3895 3862 3831 3800 3770 3739 3708
915.0576 3678 3648 3617 3586 3555 3527 3504 3487 3474 3463 3451 3437 3421 3402
921.8072 3384 3368 3356 3346 3340 3334 3329 3323 3314 3302 3289 3277 3268 3263
928.5568 3260 3258 3254 3248 3242 3236 3234 3236 3243 3256 3275 3301 3335 3377
935.3065 3427 3484 3550 3623 3706 3795 3888 3979 4059 4124 4170 4201 4221 4238
942.0561 4258 4286 4322 4368 4424 4487 4557 4629 4702 4771 4837 4900 4964 5031
948.8057 5103 5179 5257 5336 5414 5492 5570 5649 5728 5807 5884 5960 6033 6106
955.5554 6179 6251 6323 6392 6457 6517 6570 6619 6663 6705 6743 6780 6815 6847
962.3050 6878 6906 6934 6960 6983 7004 7022 7037 7049 7060 7071 7083 7095 7107
969.0546 7119 7130 7140 7150 7160 7168 7176 7181 7185 7186 7183 7179 7175 7177
975.8043 7186 7206 7233 7264 7293 7314 7326 7329 7327 7321 7316 7312 7310 7310
982.5539 7310 7310 7309 7304 7296 7282 7262 7236 7208 7181 7158 7142 7134 7131
989.3035 7133 7137 7138 7136 7128 7113 7089 7056 7013 6962 6905 6846 6790 6743
996.0532 6710 6692 6680 6654 6591 6480 6332 6187 6099 6112 6239 6450 6688 6895
1002.8028 7037 7109 7132 7129 7120 7109 7098 7084 7069 7056 7044 7032 7019
1009.0703 7004 6988 6972 6959 6947 6934 6919 6900 6877 6852 6826 6797 6767
1015.3378 6733 6697 6656 6611 6564 6517 6473 6436 6405 6378 6351 6318 6272
1021.6053 6207 6120 6009 5871 5705 5509 5282 5030 4773 4546 4401 4389 4545
1027.8729 4868 5317 5822 6306 6706 6994 7174 7270 7311 7322 7316 7301 7279
1034.1404 7253 7226 7198 7171 7146 7123 7104 7089 7076 7063 7047 7028 7005
1040.4080 6980 6956 6933 6913 6894 6876 6858 6842 6829 6817 6808 6798 6789
1046.6754 6778 6768 6761 6757 6757 6760 6762 6763 6760 6755 6746 6736 6724
1052.9430 6710 6694 6676 6659 6643 6629 6620 6614 6610 6606 6601 6594 6583
1059.2104 6570 6554 6534 6510 6483 6452 6419 6383 6344 6303 6257 6208 6155
1065.4780 6100 6040 5976 5906 5827 5743 5656 5570 5485 5402 5319 5233 5147
1071.7455 5068 5007 4978 4998 5076 5220 5427 5682 5967 6255 6524 6759 6951
1078.0131 7099 7208 7282 7327 7348 7351 7341 7325 7307 7288 7270 7253 7237
1084.2805 7221 7205 7186 7166 7143 7118 7090 7063 7037 7014 6993 6973 6949
1090.5481 6919 6883 6844 6806 6771 6742 6717 6694 6668 6640 6606 6568 6524
1096.8156 6474 6420 6361 6297 6230 6163 6099 6048 6020 6022 6059 6126 6215
1103.0831 6312 6407 6492 6565 6625 6675 6714 6744 6765 6776 6781 6782 6781
1109.3506 6778 6773 6765 6752 6733 6710 6683 6653 6623 6592 6559 6524 6487
1115.6182 6446 6401 6353 6301 6244 6184 6122 6058 5993 5928 5864 5798 5729
1121.8856 5656 5576 5489 5394 5291 5182 5072 4965 4866 4782 4720 4684 4681
1128.1532 4715 4790 4905 5057 5237 5437 5643 5844 6032 6198 6341 6457 6549
1134.4207 6618 6670 6709 6739 6763 6782 6797 6807 6812 6815 6814 6813 6810
1140.6882 6806 6800 6790 6777 6762 6747 6734 6723 6713 6704 6695 6686 6678
1146.9557 6670 6665 6663 6662 6663 6666 6670 6673 6674 6672 6667 6661 6653
1153.2233 6645 6637 6627 6616 6602 6585 6567 6548 6528 6508 6488 6467 6444
1159.4907 6419 6392 6362 6330 6296 6261 6225 6187 6147 6107 6067 6026 5985
1165.7583 5941 5895 5848 5803 5764 5735 5716 5708 5704 5701 5690 5669 5635
1172.0258 5587 5526 5454 5372 5282 5186 5087 4985 4883 4783 4688 4601 4531
1178.2933 4482 4459 4464 4495 4545 4604 4663 4715 4752 4774 4779 4768 4744
1184.5608 4711 4675 4644 4629 4640 4688 4777 4907 5076 5272 5486 5704 5915
1190.8284 6110 6283 6429 6550 6647 6723 6780 6823 6852 6870 6879 6880 6874
1197.0958 6862 6845 6826 6807 6789 6773 6758 6741 6722 6700 6676 6651 6627
1203.3634 6604 6581 6558 6534 6509 6482 6455 6428 6402 6378 6355 6334 6313
1209.6309 6293 6271 6249 6227 6206 6188 6174 6167 6165 6168 6173 6181 6189
1215.8984 6196 6202 6205 6204 6199 6191 6180 6169 6157 6145 6132 6118 6103
1222.1659 6087 6071 6055 6039 6023 6005 5986 5966 5945 5925 5904 5884 5865
1228.4335 5846 5827 5809 5790 5770 5750 5730 5708 5685 5660 5633 5605 5574
1234.7009 5542 5510 5477 5444 5411 5378 5345 5311 5276 5240 5203 5166 5129
1240.9685 5092 5057 5024 4991 4960 4929 4899 4870 4842 4817 4793 4770 4748
1247.2360 4726 4704 4683 4662 4640 4616 4589 4560 4530 4500 4471 4443 4418
1253.5035 4395 4376 4360 4347 4335 4323 4308 4290 4270 4249 4226 4201 4172
1259.7710 4140 4103 4062 4017 3969 3917 3863 3805 3743 3679 3615 3553 3498
1266.0386 3450 3404 3356 3296 3222 3140 3059 2987 2931 2889 2859 2836 2817
1272.3060 2801 2786 2774 2764 2756 2750 2744 2739 2736 2735 2735 2734 2733
1278.5736 2728 2719 2704 2683 2656 2624 2589 2552 2513 2474 2434 2395 2357
1284.8411 2322 2289 2260 2233 2209 2189 2174 2165 2165 2173 2191 2218 2255
1291.1086 2301 2356 2421 2496 2581 2675 2777 2888 3007 3133 3265 3403 3543
1297.3761 3683 3822 3959 4091 4219 4343 4461 4574 4682 4785 4884 4980 5075
1303.6437 5171 5270 5375 5487 5606 5730 5859 5988 6111 6224 6319 6391 6438
1309.9111 6459 6456 6431 6385 6319 6235 6135 6022 5902 5779 5654 5525 5393
1316.1787 5256 5112 4960 4799 4626 4442 4249 4055 3871 3707 3570 3462 3386
1322.4462 3341 3329 3346 3392 3463 3558 3673 3806 3954 4114 4285 4464 4654
1328.7137 4856 5070 5297 5533 5775 6018 6258 6492 6717 6928 7122 7297 7453
1334.9812 7591 7716 7830 7932 8024 8104 8174 8236 8293 8346 8393 8432 8465
1341.2488 8491 8514 8534 8553 8570 8584 8594 8601 8605 8606 8604 8600 8593
1347.5162 8584 8572 8558 8543 8527 8514 8504 8497 8494 8495 8498 8505 8516
1353.7838 8528 8543 8557 8570 8581 8589 8594 8598 8600 8601 8602 8602 8601
1360.0513 8597 8591 8582 8571 8556 8537 8516 8493 8471 8452 8434 8417 8401
1366.3188 8385 8369 8352 8332 8311 8287 8264 8241 8218 8196 8172 8147 8121
1372.5863 8094 8065 8036 8006 7978 7954 7931 7911 7891 7870 7848 7825 7800
1378.8539 7773 7743 7712 7678 7644 7610 7575 7541 7508 7474 7441 7408 7377
1385.1213 7348 7320 7291 7260 7225 7187 7151 7119 7089 7059 7025 6986 6942
1391.3889 6896 6852 6809 6768 6726 6677 6619 6554 6489 6432 6383 6341 6301
1397.6564 6258 6208 6149 6087 6029 5980 5938 5900 5864 5828 5794 5760 5727
1403.9240 5689 5646 5596 5545 5497 5452 5407 5358 5303 5243 5178 5112 5044
1410.1914 4976 4908 4840 4773 4708 4645 4583 4522 4462 4405 4349 4295 4245
1416.4590 4200 4162 4132 4109 4091 4075 4064 4061 4066 4077 4093 4113 4140
1422.7264 4175 4220 4273 4329 4382 4431 4478 4530 4588 4654 4726 4806 4897
1428.9940 5008 5143 5297 5455 5603 5742 5886 6043 6217 6393 6555 6692 6807
1435.2615 6916 7041 7198 7369 7506 7592 7647 7690 7727 7761 7787 7802 7803
1441.5291 7792 7771 7741 7701 7648 7581 7500 7409 7312 7209 7094 6953 6773
1447.7965 6550 6307 6069 5845 5622 5384 5116 4824 4540 4319 4205 4214 4336
1454.0641 4549 4834 5184 5597 6078 6612 7128 7526 7775 7921 8013 8079 8129
1460.3315 8169 8203 8233 8260 8286 8312 8338 8369 8409 8456 8506 8549 8584
1466.5991 8614 8643 8671 8697 8721 8739 8753 8764 8773 8782 8790 8793 8788
1472.8666 8774 8759 8747 8738 8729 8719 8706 8690 8673 8657 8643 8629 8615
1479.1342 8601 8586 8571 8554 8537 8518 8499 8481 8464 8447 8431 8414 8397
1485.4016 8380 8360 8334 8304 8270 8239 8212 8187 8152 8100 8031 7959 7893
1491.6692 7829 7760 7680 7588 7490 7390 7290 7191 7102 7037 7015 7043 7121
1497.9366 7247 7412 7592 7754 7875 7953 8003 8040 8070 8094 8110 8119 8123
1504.2042 8126 8128 8129 8123 8100 8062 8029 8011 7997 7984 7970 7958 7948
1510.4717 7938 7926 7912 7894 7875 7856 7838 7823 7809 7795 7780 7760 7731
1516.7393 7693 7653 7623 7601 7586 7572 7558 7540 7514 7480 7444 7417 7400
1523.0067 7388 7379 7372 7364 7357 7350 7344 7339 7335 7331 7328 7324 7320
1529.2743 7316 7311 7307 7303 7300 7298 7298 7299 7296 7288 7276 7263 7252
1535.5417 7243 7236 7230 7226 7222 7219 7215 7207 7193 7178 7167 7158 7147
1541.8093 7132 7117 7103 7091 7079 7065 7047 7025 7003 6985 6970 6958 6946
1548.0768 6935 6922 6908 6890 6871 6854 6841 6830 6822 6815 6807 6797 6783
1554.3444 6767 6752 6741 6732 6724 6715 6704 6688 6665 6635 6611 6594 6578
1560.6118 6561 6545 6529 6514 6498 6481 6462 6438 6409 6377 6344 6314 6286
1566.8794 6261 6237 6214 6188 6156 6116 6074 6038 6006 5976 5943 5905 5864
1573.1469 5822 5785 5751 5719 5678 5613 5521 5423 5347 5293 5245 5196 5143
1579.4144 5086 5028 4973 4922 4878 4841 4818 4813 4832 4881 4966 5091 5257
1585.6819 5459 5688 5929 6165 6379 6559 6698 6793 6846 6863 6849 6811 6757
1591.9495 6691 6619 6540 6454 6360 6258 6152 6042 5932 5822 5711 5600 5491
1598.2170 5388 5294 5215 5155 5118 5106 5120 5157 5216 5295 5388 5490 5594
1604.4845 5695 5792 5887 5984 6081 6176 6265 6344 6415 6480 6537 6586 6624
1610.7521 6651 6668 6676 6677 6669 6653 6631 6608 6585 6561 6525 6463 6371
1617.0195 6278 6219 6198 6201 6222 6256 6297 6341 6379 6410 6430 6441 6443
1623.2871 6437 6427 6418 6412 6407 6404 6398 6390 6378 6361 6340 6317 6295
1629.5546 6273 6250 6223 6194 6162 6131 6102 6078 6057 6037 6011 5973 5922
1635.8221 5871 5833 5805 5779 5751 5721 5689 5656 5621 5584 5546 5505 5463
1642.0896 5421 5380 5341 5306 5273 5240 5206 5165 5115 5057 4995 4932 4873
1648.3572 4819 4773 4735 4704 4678 4656 4635 4612 4575 4491 4348 4244 4203
1654.6246 4181 4161 4136 4104 4067 4025 3980 3933 3886 3842 3800 3763 3729
1660.8922 3695 3656 3604 3534 3457 3390 3339 3300 3263 3223 3180 3139 3102
1667.1597 3071 3038 2994 2931 2854 2784 2735 2700 2670 2641 2614 2595 2585
1673.4272 2580 2572 2553 2517 2472 2441 2433 2441 2454 2470 2487 2504 2522
1679.6947 2542 2568 2598 2633 2671 2709 2747 2790 2855 2969 3103 3203 3275
1685.9623 3342 3413 3493 3586 3690 3806 3928 4053 4176 4296 4411 4522 4628
1692.2297 4729 4824 4911 4990 5063 5140 5240 5375 5524 5636 5705 5749 5784
1698.4973 5816 5853 5909 6004 6116 6187 6222 6248 6276 6312 6359 6418 6486
1704.7648 6559 6636 6723 6820 6921 7015 7096 7166 7232 7298 7367 7437 7503
1711.0323 7559 7606 7646 7683 7720 7760 7808 7864 7922 7975 8019 8060 8105
1717.2998 8163 8229 8286 8323 8350 8377 8408 8445 8487 8531 8578 8626 8675
1723.5674 8723 8767 8807 8843 8878 8913 8949 8985 9018 9048 9075 9100 9122
1729.8348 9141 9157 9171 9184 9199 9216 9235 9251 9251 9229 9206 9193 9190
1736.1024 9191 9193 9193 9191 9187 9180 9168 9151 9135 9122 9116 9112 9109
1742.3699 9102 9089 9070 9048 9026 9009 8994 8981 8969 8955 8939 8923 8909
1748.6375 8899 8894 8893 8893 8892 8890 8888 8888 8892 8898 8906 8915 8925
1754.9049 8934 8943 8950 8954 8956 8957 8956 8957 8958 8959 8960 8960 8959
1761.1725 8955 8947 8937 8927 8917 8909 8901 8894 8887 8881 8875 8867 8857
1767.4399 8844 8830 8816 8807 8802 8798 8794 8788 8778 8764 8749 8735 8724
1773.7075 8713 8701 8686 8670 8654 8640 8629 8621 8614 8607 8600 8591 8580
1779.9750 8568 8555 8541 8527 8515 8504 8494 8484 8470 8454 8434 8415 8398
1786.2426 8386 8378 8372 8367 8364 8360 8356 8353 8351 8351 8354 8362 8373
1792.5100 8383 8389 8390 8389 8387 8388 8391 8397 8401 8404 8405 8405 8405
1798.7776 8406 8409 8413 8420 8428 8438 8449 8460 8470 8478 8485 8491 8498
1805.0450 8504 8509 8514 8517 8520 8523 8526 8529 8531 8534 8537 8539 8539
1811.3126 8537 8533 8528 8524 8521 8520 8520 8521 8522 8524 8525 8528 8531
1817.5801 8533 8533 8529 8521 8509 8496 8482 8471 8464 8460 8460 8461 8464
1823.8477 8468 8474 8481 8490 8498 8504 8507 8510 8513 8518 8526 8538 8552
1830.1151 8565 8575 8582 8587 8590 8592 8592 8589 8587 8584 8584 8587 8592
1836.3827 8600 8607 8612 8613 8609 8604 8599 8595 8594 8594 8595 8597 8599
1842.6501 8602 8608 8617 8626 8631 8631 8629 8628 8629 8631 8631 8629 8622
1848.9177 8613 8606 8601 8599 8601 8604 8607 8609 8608 8606 8605 8605 8607
1855.1852 8608 8609 8606 8601 8592 8583 8575 8569 8567 8566 8568 8570 8574
1861.4528 8577 8578 8576 8569 8559 8545 8532 8522 8517 8517 8521 8525 8525
1867.7202 8520 8510 8501 8495 8495 8498 8501 8501 8500 8496 8491 8484 8475
1873.9878 8463 8452 8442 8436 8435 8438 8442 8443 8441 8436 8430 8426 8424
1880.2552 8424 8425 8424 8422 8419 8416 8415 8415 8417 8418 8417 8414 8408
1886.5228 8401 8395 8392 8391 8393 8396 8398 8397 8393 8387 8381 8374 8369
1892.7903 8366 8365 8368 8370 8369 8361 8345 8325 8306 8293 8290 8295 8308
1899.0579 8325 8343 8357 8365 8367 8363 8355 8345 8336 8329 8323 8316 8306
1905.3253 8291 8271 8252 8236 8226 8221 8219 8215 8207 8197 8188 8180 8174
1911.5929 8166 8154 8137 8117 8100 8090 8090 8099 8111 8125 8136 8145 8150
1917.8604 8152 8152 8151 8152 8155 8161 8170 8182 8194 8205 8214 8222 8230
1924.1279 8237 8243 8248 8254 8261 8272 8285 8299 8310 8313 8309 8297 8283
1930.3954 8269 8260 8256 8257 8261 8265 8267 8265 8262 8258 8257 8260 8269
1936.6630 8285 8309 8340 8377 8412 8439 8451 8448 8433 8412 8396 8391 8403
1942.9304 8427 8453 8475 8487 8492 8494 8498 8506 8516 8522 8517 8501 8475
1949.1980 8448 8425 8411 8404 8404 8407 8414 8425 8438 8447 8450 8441 8421
1955.4655 8396 8374 8364 8371 8395 8429 8461 8482 8488 8487 8490 8507 8538
1961.7330 8571 8590 8583 8550 8505 8463 8438 8432 8436 8441 8442 8442 8444
1968.0005 8449 8449 8430 8388 8327 8261 8207 8173 8156 8147 8139 8139 8159
1974.2681 8210 8290 8381 8457 8498 8501 8478 8453 8440 8444 8455 8462 8459
1980.5355 8443 8422 8400 8383 8374 8373 8378 8387 8393 8390 8375 8352 8327
1986.8031 8311 8308 8316 8328 8336 8341 8347 8360 8383 8410 8432 8440 8436
1993.0706 8427 8421 8422 8429 8443 8462 8482 8501 8512 8511 8500 8485 8474
1999.3381 8472 8478 8483 8480 8467 8448 8431 8426 8437 8460 8483 8492 8477
2005.6056 8437 8383 8337 8318 8338 8395 8473 8552 8616 8653 8662 8646 8612
2011.8732 8569 8527 8495 8479 8479 8486 8487 8471 8434 8384 8340 8317 8322
2018.1406 8345 8371 8388 8393 8393 8399 8418 8448 8481 8514 8546 8582 8623
2024.4082 8660 8675 8651 8584 8487 8388 8313 8275 8273 8296 8330 8370 8416
2030.6757 8468 8525 8579 8620 8641 8640 8620 8588 8550 8510 8472 8442 8423
2036.9432 8414 8417 8427 8443 8464 8488 8510 8523 8520 8500 8470 8439 8418
2043.2107 8408 8408 8411 8412 8410 8404 8396 8386 8376 8369 8369 8381 8404
2049.4783 8434 8465 8489 8505 8509 8503 8488 8465 8441 8421 8411 8413 8423
2055.7458 8435 8441 8439 8430 8416 8400 8385 8372 8362 8357 8353 8350 8343
2062.0132 8334 8326 8321 8324 8334 8345 8349 8342 8323 8296 8270 8251 8242
2068.2808 8242 8250 8259 8267 8269 8263 8251 8236 8224 8220 8224 8232 8237
2074.5483 8234 8223 8207 8192 8180 8170 8160 8150 8141 8137 8139 8146 8152
2080.8159 8153 8148 8136 8120 8100 8078 8056 8040 8033 8038 8053 8074 8094
2087.0833 8108 8113 8109 8099 8086 8075 8069 8070 8078 8090 8101 8109 8111
2093.3508 8109 8105 8103 8106 8114 8125 8137 8149 8158 8165 8167 8165 8160
2099.6184 8152 8143 8139 8140 8148 8161 8174 8184 8186 8179 8167 8154 8144
2105.8860 8141 8146 8155 8164 8168 8166 8159 8148 8140 8137 8140 8150 8163
2112.1533 8176 8186 8190 8189 8186 8184 8186 8190 8193 8193 8189 8183 8178
2118.4209 8175 8175 8174 8170 8162 8152 8142 8135 8128 8122 8117 8113 8117
2124.6885 8131 8153 8179 8201 8215 8218 8213 8202 8189 8176 8166 8161 8165
2130.9561 8176 8190 8202 8205 8199 8188 8178 8174 8179 8190 8203 8213 8218
2137.2234 8217 8213 8214 8222 8238 8257 8267 8260 8234 8197 8165 8150 8161
2143.4910 8192 8232 8268 8291 8300 8299 8292 8282 8272 8261 8250 8238 8224
2149.7585 8212 8204 8204 8212 8223 8229 8222 8202 8176 8155 8145 8147 8153
2156.0261 8156 8153 8148 8149 8160 8174 8175 8151 8101 8036 7979 7949 7953
2162.2935 7991 8051 8113 8161 8182 8172 8138 8092 8045 8007 7978 7958 7944
2168.5610 7934 7928 7929 7939 7956 7976 7993 8002 8005 8007 8015 8029 8047
2174.8286 8061 8064 8053 8030 8002 7973 7948 7930 7920 7921 7931 7948 7964
2181.0962 7976 7979 7976 7969 7964 7964 7967 7973 7976 7974 7961 7941 7921
2187.3635 7909 7914 7933 7958 7974 7971 7953 7932 7925 7938 7967 7996 8009
2193.6311 8004 7987 7973 7970 7977 7988 7994 7994 7993 7995 8004 8016 8026
2199.8987 8030 8027 8021 8015 8011 8012 8023 8042 8066 8089 8102 8101 8084
2206.1663 8058 8032 8015 8009 8014 8024 8032 8031 8020 7999 7975 7954 7943
2212.4336 7942 7949 7960 7967 7969 7961 7946 7926 7902 7879 7859 7846 7843
2218.7012 7851 7870 7896 7923 7945 7959 7966 7969 7969 7969 7969 7966 7960
2224.9688 7950 7938 7925 7912 7901 7892 7884 7878 7872 7869 7867 7869 7872
2231.2363 7873 7869 7859 7844 7830 7821 7821 7826 7834 7839 7839 7835 7829
2237.5037 7825 7824 7825 7827 7829 7832 7832 7829 7819 7803 7784 7768 7763
2243.7712 7769 7783 7797 7804 7801 7792 7783 7780 7783 7788 7791 7789 7783
2250.0388 7776 7771 7768 7770 7774 7781 7788 7795 7801 7806 7811 7815 7817
2256.3064 7814 7805 7791 7777 7771 7774 7785 7796 7802 7799 7788 7774 7761
2262.5737 7751 7744 7741 7740 7742 7747 7751 7753 7750 7743 7734 7725 7719
2268.8413 7715 7716 7722 7730 7739 7743 7738 7725 7708 7694 7688 7691 7699
2275.1089 7704 7703 7694 7681 7672 7669 7672 7679 7686 7688 7685 7678 7669
2281.3765 7659 7649 7641 7635 7629 7624 7620 7617 7617 7618 7621 7626 7631
2287.6438 7636 7640 7642 7642 7639 7634 7628 7624 7622 7626 7634 7644 7655
2293.9114 7661 7663 7659 7652 7646 7641 7640 7641 7644 7648 7652 7655 7656
2300.1790 7655 7652 7649 7646 7643 7641 7638 7635 7633 7633 7635 7639 7644
2306.4465 7649 7654 7657 7659 7661 7662 7664 7667 7672 7677 7682 7686 7689
2312.7139 7691 7692 7693 7694 7695 7696 7698 7703 7710 7718 7728 7736 7741
2318.9814 7743 7742 7741 7740 7741 7742 7742 7739 7736 7734 7736 7743 7753
2325.2490 7765 7778 7790 7801 7811 7821 7831 7840 7845 7845 7840 7831 7820
2331.5166 7810 7803 7799 7799 7801 7805 7812 7821 7835 7851 7867 7879 7883
2337.7839 7878 7864 7847 7829 7813 7798 7785 7773 7763 7757 7758 7761 7764
2344.0515 7761 7752 7740 7728 7714 7699 7681 7661 7642 7628 7620 7620 7629
2350.3191 7645 7666 7691 7720 7750 7782 7811 7832 7845 7852 7864 7888 7928
2356.5867 7980 8036 8088 8132 8164 8175 8156 8104 8027 7946 7882 7852 7857
2362.8540 7885 7920 7946 7954 7945 7923 7893 7860 7827 7794 7764 7736 7709
2369.1216 7684 7660 7637 7618 7603 7590 7580 7569 7556 7540 7522 7503 7487
2375.3892 7472 7457 7441 7422 7402 7382 7366 7355 7348 7344 7338 7332 7323
2381.6567 7314 7303 7292 7281 7269 7258 7247 7239 7233 7228 7225 7221 7218
2387.9241 7215 7212 7210 7208 7207 7205 7202 7199 7195 7190 7186 7181 7177
2394.1917 7174 7171 7169 7166 7161 7155 7148 7142 7138 7137 7139 7143 7146
2400.4592 7146 7143 7137 7132 7128 7128 7130 7133 7134 7134 7131 7126 7118
2406.7268 7109 7101 7093 7088 7086 7084 7081 7078 7075 7072 7071 7072 7073
2412.9941 7073 7071 7068 7065 7063 7063 7062 7062 7062 7061 7059 7057 7052
2419.2617 7046 7038 7031 7027 7026 7029 7033 7037 7038 7037 7033 7030 7028
2425.5293 7026 7025 7024 7021 7019 7016 7013 7012 7011 7010 7008 7004 7000
2431.7969 6996 6991 6988 6985 6983 6981 6979 6977 6975 6973 6971 6970 6968
2438.0642 6968 6968 6968 6967 6963 6957 6951 6944 6940 6939 6940 6942 6943
2444.3318 6943 6941 6938 6935 6931 6927 6922 6916 6909 6903 6899 6897 6896
2450.5994 6895 6893 6890 6886 6883 6879 6876 6871 6865 6858 6850 6843 6838
2456.8669 6834 6831 6829 6827 6825 6822 6818 6813 6809 6805 6803 6800 6796
2463.1343 6788 6778 6767 6758 6752 6750 6749 6748 6744 6738 6730 6723 6717
2469.4019 6715 6715 6718 6722 6725 6727 6726 6724 6720 6715 6710 6705 6700
2475.6694 6696 6694 6691 6689 6686 6682 6678 6675 6672 6669 6665 6661 6658
2481.9370 6656 6656 6658 6660 6662 6662 6660 6655 6647 6639 6631 6625 6622
2488.2043 6620 6620 6619 6618 6615 6612 6609 6605 6599 6592 6581 6570 6560
2494.4719 6551 6545 6540 6536 6532 6527 6522 6519 6517 6518 6520 6521 6520
2500.7395 6516 6510 6503 6495 6489 6483 6478 6474 6471 6469 6468 6467 6467
2507.0071 6465 6461 6456 6449 6441 6433 6425 6420 6418 6419 6421 6424 6426
2513.2744 6426 6423 6417 6410 6401 6393 6387 6383 6380 6378 6375 6372 6368
2519.5420 6364 6360 6356 6352 6346 6337 6326 6317 6309 6306 6306 6307 6308
2525.8096 6305 6300 6292 6283 6275 6270 6267 6266 6267 6267 6267 6265 6261
2532.0771 6255 6247 6237 6226 6216 6209 6204 6201 6200 6199 6198 6196 6194
2538.3445 6192 6188 6183 6175 6167 6159 6154 6152 6152 6152 6150 6147 6141
2544.6121 6134 6127 6120 6113 6108 6104 6101 6099 6098 6096 6095 6095 6096
2550.8796 6097 6097 6095 6091 6087 6085 6085 6087 6090 6093 6096 6100 6106
2557.1472 6113 6120 6125 6128 6130 6131 6134 6140 6147 6154 6161 6166 6171
2563.4146 6175 6182 6190 6199 6209 6219 6228 6235 6242 6249 6257 6267 6277
2569.6821 6289 6302 6317 6334 6353 6371 6388 6403 6417 6432 6448 6467 6487
2575.9497 6507 6524 6540 6554 6568 6583 6599 6613 6626 6638 6649 6660 6673
2582.2173 6687 6702 6717 6732 6746 6758 6769 6777 6783 6785 6785 6784 6782
2588.4849 6779 6775 6770 6764 6757 6749 6743 6737 6732 6728 6723 6715 6704
2594.7522 6693 6681 6671 6661 6652 6642 6630 6619 6609 6601 6596 6593 6591
2601.0198 6589 6586 6583 6579 6574 6569 6564 6559 6555 6553 6552 6554 6557
2607.2874 6561 6567 6574 6583 6593 6604 6616 6627 6638 6648 6658 6668 6679
2613.5549 6689 6700 6710 6718 6725 6729 6732 6734 6736 6739 6742 6745 6748
2619.8223 6751 6752 6751 6749 6747 6745 6744 6743 6743 6741 6737 6732 6725
2626.0898 6717 6708 6700 6691 6684 6678 6672 6667 6662 6655 6647 6637 6627
2632.3574 6618 6611 6606 6602 6598 6593 6587 6580 6572 6566 6560 6555 6550
2638.6250 6545 6541 6536 6533 6532 6532 6533 6533 6532 6530 6527 6523 6520
2644.8923 6518 6516 6515 6515 6514 6515 6516 6519 6521 6524 6525 6524 6523
2651.1599 6521 6518 6516 6513 6508 6503 6497 6491 6486 6482 6480 6478 6477
2657.4275 6475 6472 6470 6468 6468 6468 6468 6467 6466 6463 6460 6457 6456
2663.6951 6456 6456 6458 6459 6460 6460 6460 6459 6458 6458 6458 6458 6458
2669.9624 6459 6461 6464 6469 6473 6477 6479 6481 6482 6484 6488 6493 6499
2676.2300 6503 6507 6510 6513 6516 6521 6526 6534 6542 6552 6561 6569 6577
2682.4976 6584 6592 6600 6610 6620 6631 6642 6652 6663 6673 6684 6696 6708
2688.7651 6720 6733 6746 6760 6775 6790 6804 6819 6834 6849 6865 6882 6900
2695.0325 6917 6933 6949 6965 6982 6999 7017 7036 7054 7071 7088 7103 7116
2701.3000 7126 7136 7145 7154 7165 7175 7186 7195 7203 7209 7214 7217 7220
2707.5676 7223 7224 7224 7222 7218 7214 7209 7205 7200 7195 7190 7184 7178
2713.8352 7170 7162 7153 7145 7137 7130 7124 7119 7114 7110 7105 7099 7093
2720.1025 7085 7077 7069 7061 7055 7050 7048 7046 7047 7048 7049 7050 7050
2726.3701 7050 7050 7050 7052 7054 7056 7058 7060 7061 7064 7067 7072 7077
2732.6377 7084 7091 7098 7104 7111 7118 7124 7130 7136 7140 7143 7144 7145
2738.9053 7146 7147 7148 7148 7146 7144 7141 7138 7136 7135 7134 7132 7128
2745.1726 7123 7116 7109 7102 7097 7094 7092 7089 7085 7080 7073 7065 7057
2751.4402 7051 7045 7041 7036 7031 7025 7019 7015 7012 7011 7011 7010 7009
2757.7078 7007 7004 7002 6999 6997 6993 6989 6984 6980 6975 6972 6969 6967
2763.9753 6964 6961 6958 6955 6953 6953 6953 6954 6954 6954 6952 6949 6946
2770.2427 6943 6939 6936 6933 6928 6923 6916 6909 6901 6893 6886 6881 6876
2776.5103 6871 6865 6858 6850 6841 6832 6824 6818 6814 6812 6810 6810 6811
2782.7778 6812 6814 6816 6817 6817 6815 6811 6808 6804 6802 6799 6796 6792
2789.0454 6786 6778 6770 6762 6755 6749 6744 6738 6732 6725 6717 6709 6700
2795.3127 6692 6685 6679 6674 6669 6663 6656 6649 6642 6636 6630 6625 6618
2801.5803 6611 6603 6595 6586 6577 6570 6564 6559 6554 6548 6542 6534 6528
2807.8479 6522 6518 6515 6512 6508 6503 6498 6493 6489 6486 6484 6481 6477
2814.1155 6473 6469 6466 6464 6462 6461 6459 6457 6454 6452 6449 6446 6443
2820.3828 6439 6436 6433 6430 6429 6429 6430 6431 6433 6433 6433 6431 6428
2826.6504 6424 6421 6419 6419 6422 6427 6433 6438 6442 6445 6446 6447 6450
2832.9180 6454 6459 6464 6469 6473 6476 6479 6482 6486 6490 6494 6499 6505
2839.1855 6512 6519 6527 6535 6544 6554 6564 6573 6581 6588 6595 6603 6611
2845.4529 6620 6629 6636 6641 6645 6650 6657 6666 6678 6690 6702 6713 6723
2851.7205 6733 6743 6754 6765 6775 6785 6794 6801 6807 6812 6816 6819 6822
2857.9880 6826 6830 6837 6844 6853 6860 6863 6863 6858 6849 6840 6831 6824
2864.2556 6819 6814 6810 6806 6803 6799 6797 6794 6791 6787 6782 6776 6772
2870.5229 6767 6764 6763 6762 6762 6763 6765 6767 6769 6771 6775 6778 6781
2876.7905 6782 6781 6779 6777 6777 6779 6784 6789 6793 6794 6793 6792 6791
2883.0581 6793 6797 6803 6808 6811 6813 6815 6818 6822 6827 6832 6836 6838
2889.3257 6841 6845 6852 6860 6868 6875 6881 6887 6894 6902 6912 6922 6931
2895.5930 6937 6942 6946 6950 6955 6960 6966 6971 6976 6980 6984 6989 6995
2901.8606 7002 7009 7016 7021 7025 7028 7031 7034 7039 7046 7054 7062 7069
2908.1282 7075 7078 7080 7080 7079 7077 7075 7073 7072 7073 7075 7080 7086
2914.3958 7093 7100 7106 7112 7117 7122 7127 7132 7138 7145 7151 7157 7160
2920.6631 7162 7161 7160 7158 7158 7159 7160 7161 7161 7159 7155 7151 7148
2926.9307 7145 7143 7142 7140 7138 7135 7131 7126 7121 7118 7116 7116 7116
2933.1982 7115 7112 7106 7099 7092 7085 7080 7076 7072 7068 7063 7058 7055
2939.4658 7052 7050 7047 7041 7034 7027 7022 7021 7022 7026 7030 7032 7032
2945.7332 7030 7028 7026 7024 7023 7022 7020 7017 7015 7016 7019 7025 7033
2952.0007 7040 7045 7047 7046 7044 7042 7041 7041 7042 7043 7044 7043 7042
2958.2683 7040 7039 7040 7042 7045 7049 7051 7052 7050 7048 7046 7045 7045
2964.5359 7046 7046 7045 7044 7042 7041 7039 7037 7035 7033 7034 7036 7040
2970.8032 7046 7052 7058 7062 7064 7064 7063 7062 7061 7061 7061 7060 7060
2977.0708 7058 7057 7057 7057 7058 7060 7062 7063 7064 7065 7066 7069 7073
2983.3384 7078 7083 7089 7094 7100 7106 7110 7113 7112 7108 7102 7097 7095
2989.6060 7096 7099 7102 7103 7102 7100 7097 7093 7090 7087 7084 7080 7078
2995.8733 7078 7079 7081 7082 7083 7083 7082 7082 7084 7088 7094 7101 7108
3002.1409 7114 7118 7120 7122 7122 7123 7124 7125 7127 7128 7130 7132 7133
3008.4084 7133 7134 7135 7136 7138 7140 7143 7146 7149 7154 7160 7166 7171
3014.6760 7175 7177 7176 7176 7176 7178 7182 7189 7197 7204 7210 7213 7215
3020.9434 7217 7220 7225 7231 7239 7246 7254 7261 7267 7271 7274 7274 7275
3027.2109 7276 7281 7288 7297 7306 7313 7319 7324 7329 7334 7338 7342 7344
3033.4785 7346 7349 7354 7360 7366 7371 7375 7377 7379 7382 7387 7392 7397
3039.7461 7403 7411 7418 7427 7434 7439 7442 7443 7445 7447 7450 7455 7461
3046.0134 7466 7470 7471 7470 7465 7456 7445 7435 7427 7424 7424 7426 7428
3052.2810 7429 7428 7425 7422 7418 7412 7403 7393 7380 7367 7355 7343 7331
3058.5486 7317 7302 7287 7271 7257 7244 7232 7221 7212 7205 7201 7198 7197
3064.8162 7196 7193 7189 7183 7174 7161 7144 7124 7101 7077 7055 7036 7022
3071.0835 7014 7014 7023 7043 7074 7116 7168 7229 7296 7365 7432 7495 7551
3077.3511 7599 7638 7669 7693 7713 7730 7746 7760 7773 7782 7788 7792 7795
3083.6187 7799 7803 7808 7815 7820 7825 7830 7835 7840 7846 7851 7853 7852
3089.8862 7848 7844 7840 7839 7840 7841 7843 7845 7848 7853 7861 7871 7883
3096.1536 7895 7906 7916 7923 7929 7934 7938 7940 7942 7943 7946 7950 7956
3102.4211 7963 7971 7977 7981 7983 7986 7990 7997 8005 8013 8018 8020 8019
3108.6887 8018 8018 8020 8023 8028 8032 8037 8041 8046 8052 8057 8063 8068
3114.9563 8072 8074 8075 8075 8075 8077 8082 8089 8097 8104 8112 8118 8123
3121.2236 8129 8134 8140 8144 8147 8150 8152 8154 8156 8159 8161 8162 8163
3127.4912 8165 8170 8175 8182 8188 8192 8196 8198 8201 8204 8209 8215 8223
3133.7588 8232 8241 8248 8252 8252 8250 8248 8246 8247 8248 8250 8251 8252
3140.0264 8252 8254 8257 8262 8270 8278 8288 8296 8301 8303 8302 8299 8296
3146.2937 8296 8301 8308 8318 8326 8333 8337 8339 8338 8338 8338 8338 8339
3152.5613 8339 8339 8340 8343 8347 8353 8358 8361 8362 8362 8363 8366 8372
3158.8289 8379 8386 8391 8394 8396 8395 8394 8391 8388 8386 8385 8385 8386
3165.0964 8386 8386 8387 8388 8391 8395 8399 8403 8407 8411 8414 8418 8421
3171.3638 8424 8427 8428 8429 8429 8429 8429 8431 8436 8442 8450 8456 8460
3177.6313 8460 8457 8452 8446 8443 8444 8450 8458 8468 8476 8480 8481 8478
3183.8989 8476 8476 8477 8481 8484 8486 8487 8487 8487 8487 8487 8487 8487
3190.1665 8487 8487 8488 8490 8492 8496 8500 8505 8509 8512 8515 8518 8521
3196.4338 8524 8526 8527 8528 8531 8535 8539 8543 8544 8542 8539 8538 8539
3202.7014 8543 8548 8551 8551 8547 8544 8542 8543 8546 8552 8558 8563 8568
3208.9690 8572 8574 8576 8576 8576 8577 8578 8580 8583 8587 8590 8594 8596
3215.2366 8597 8598 8599 8600 8602 8605 8607 8609 8610 8611 8612 8612 8611
3221.5039 8610 8610 8613 8618 8626 8635 8643 8648 8649 8649 8649 8650 8652
3227.7715 8654 8657 8658 8659 8659 8659 8659 8658 8656 8654 8652 8652 8653
3234.0391 8655 8658 8661 8665 8669 8675 8681 8689 8697 8704 8711 8715 8717
3240.3066 8716 8713 8710 8709 8712 8720 8731 8742 8749 8750 8745 8738 8732
3246.5740 8729 8729 8730 8732 8734 8737 8741 8749 8758 8768 8776 8781 8784
3252.8416 8786 8786 8786 8785 8783 8782 8781 8782 8784 8785 8785 8786 8787
3259.1091 8791 8795 8799 8802 8805 8806 8807 8807 8807 8805 8804 8803 8803
3265.3767 8803 8804 8805 8806 8808 8812 8817 8822 8824 8824 8821 8816 8812
3271.6440 8810 8810 8813 8817 8822 8826 8828 8828 8827 8826 8827 8830 8833
3277.9116 8835 8834 8830 8825 8822 8821 8823 8827 8828 8827 8824 8819 8815
3284.1792 8813 8813 8814 8815 8814 8814 8816 8819 8826 8834 8844 8854 8863
3290.4468 8869 8872 8873 8872 8870 8868 8868 8867 8865 8861 8852 8841 8830
3296.7141 8822 8819 8822 8830 8841 8851 8859 8865 8869 8873 8875 8878 8880
3302.9817 8882 8883 8884 8884 8885 8887 8887 8885 8880 8872 8862 8854 8847
3309.2493 8844 8843 8844 8845 8848 8853 8860 8868 8875 8879 8880 8877 8872
3315.5168 8866 8862 8859 8858 8858 8860 8864 8868 8873 8879 8885 8892 8899
3321.7842 8906 8912 8916 8916 8913 8907 8899 8891 8884 8879 8878 8881 8887
3328.0518 8896 8906 8915 8921 8923 8924 8924 8925 8928 8934 8942 8952 8960
3334.3193 8967 8970 8969 8965 8957 8948 8938 8928 8920 8918 8921 8930 8942
3340.5869 8952 8958 8959 8954 8948 8942 8938 8937 8939 8942 8949 8959 8972
3346.8542 8985 8997 9005 9007 9002 8991 8977 8964 8952 8945 8943 8944 8947
3353.1218 8951 8955 8959 8963 8967 8972 8975 8979 8981 8981 8980 8977 8973
3359.3894 8968 8964 8962 8963 8967 8976 8987 8999 9010 9017 9019 9017 9011
3365.6570 9003 8995 8989 8984 8981 8979 8978 8977 8977 8977 8977 8979 8980
3371.9243 8981 8983 8985 8991 8999 9006 9011 9010 9003 8993 8983 8977 8977
3378.1919 8979 8981 8981 8978 8974 8970 8970 8972 8976 8980 8984 8987 8990
3384.4595 8991 8990 8988 8986 8985 8986 8990 8995 8999 9001 9001 9001 9000
3390.7271 8999 8999 8997 8995 8992 8988 8985 8983 8981 8982 8984 8989 8997
3396.9944 9006 9014 9021 9023 9022 9017 9012 9006 9002 8999 8997 8997 8997
3403.2620 8999 9001 9004 9007 9010 9013 9014 9015 9015 9014 9012 9010 9008
3409.5295 9006 9006 9007 9007 9007 9004 9000 8995 8990 8986 8985 8985 8986
3415.7971 8988 8989 8990 8991 8993 8996 9001 9005 9009 9011 9011 9011 9010
3422.0645 9008 9005 9002 8999 8998 8999 9003 9007 9011 9014 9014 9013 9011
3428.3320 9008 9006 9003 9000 8997 8995 8993 8993 8994 8996 8997 8998 8999
3434.5996 9000 9001 9002 9003 9003 9002 9001 9001 9001 9001 8999 8996 8992
3440.8672 8987 8981 8975 8969 8962 8954 8948 8942 8938 8937 8939 8942 8945
3447.1345 8947 8945 8940 8934 8929 8928 8931 8935 8940 8944 8945 8945 8947
3453.4021 8950 8956 8961 8966 8969 8970 8970 8972 8976 8982 8988 8994 8999
3459.6697 9003 9006 9010 9014 9016 9016 9012 9008 9005 9004 9006 9010 9014
3465.9373 9018 9021 9025 9028 9030 9029 9026 9021 9014 9008 9002 8999 8999
3472.2046 9000 9001 9002 9001 8998 8994 8991 8991 8993 8996 8998 9000 8999
3478.4722 8998 8998 8998 9000 9003 9005 9006 9004 9002 8999 8997 8997 8998
3484.7397 8999 8999 8998 8998 8999 9003 9008 9013 9015 9015 9012 9007 9002
3491.0073 8999 9000 9003 9008 9013 9016 9015 9013 9009 9005 9002 9000 8998
3497.2747 8997 8995 8992 8990 8989 8989 8990 8992 8993 8993 8992 8991 8991
3503.5422 8992 8992 8992 8990 8989 8989 8991 8995 9000 9002 9000 8995 8989
3509.8098 8986 8986 8991 8998 9003 9004 9001 8995 8989 8984 8981 8980 8980
3516.0774 8981 8983 8984 8986 8989 8992 8996 8999 8998 8993 8985 8976 8969
3522.3447 8968 8972 8980 8987 8991 8992 8992 8993 8995 8999 9001 9001 8999
3528.6123 8995 8992 8990 8988 8988 8988 8988 8989 8989 8988 8986 8984 8984
3534.8799 8986 8990 8993 8994 8993 8991 8991 8993 8997 9001 9003 9001 8997
3541.1475 8992 8987 8983 8980 8979 8977 8977 8978 8980 8985 8992 9000 9005
3547.4148 9007 9004 8999 8995 8993 8995 8998 9002 9003 9002 8998 8994 8992
3553.6824 8989 8988 8986 8985 8983 8982 8981 8981 8981 8984 8989 8996 9001
3559.9500 9002 8998 8991 8983 8978 8978 8983 8989 8993 8994 8990 8986 8982
3566.2175 8983 8988 8994 8997 8996 8993 8989 8986 8983 8980 8978 8976 8976
3572.4851 8977 8980 8984 8989 8993 8997 8999 9000 9000 9001 9003 9005 9006
3578.7524 9006 9004 8999 8993 8987 8982 8979 8978 8979 8982 8983 8984 8982
3585.0200 8980 8978 8978 8983 8993 9005 9014 9017 9013 9006 8998 8990 8985
3591.2876 8982 8980 8979 8978 8978 8978 8977 8977 8978 8979 8981 8984 8987
3597.5552 8990 8991 8992 8992 8992 8993 8995 8996 8997 8998 9000 9001 9002
3603.8225 9000 8996 8989 8980 8971 8962 8958 8960 8967 8977 8986 8990 8988
3610.0901 8983 8977 8971 8965 8962 8959 8959 8962 8966 8973 8979 8985 8991
3616.3577 8996 9001 9005 9007 9005 8999 8991 8985 8981 8981 8984 8988 8993
3622.6252 8997 8998 8996 8992 8986 8981 8978 8980 8987 8997 9012 9030 9044
3628.8926 9045 9033 9016 9002 8992 8984 8979 8974 8972 8972 8973 8972 8970
3635.1602 8965 8960 8957 8959 8965 8973 8979 8980 8975 8966 8958 8953 8952
3641.4277 8955 8958 8961 8963 8963 8963 8961 8959 8957 8957 8962 8971 8984
3647.6953 8993 8995 8990 8983 8974 8966 8959 8953 8950 8949 8952 8956 8963
3653.9626 8969 8973 8975 8974 8968 8961 8953 8946 8942 8940 8940 8941 8943
3660.2302 8943 8941 8937 8932 8928 8926 8926 8928 8931 8934 8937 8939 8940
3666.4978 8940 8940 8940 8941 8945 8954 8967 8979 8983 8978 8969 8959 8953
3672.7654 8949 8951 8959 8977 9003 9022 9018 9001 8985 8974 8967 8964 8963
3679.0327 8963 8964 8964 8962 8961 8959 8959 8959 8959 8958 8956 8953 8952
3685.3003 8954 8960 8968 8978 8987 8990 8986 8979 8975 8977 8983 8988 8987
3691.5679 8980 8970 8959 8953 8951 8953 8957 8962 8966 8969 8971 8973 8975
3697.8354 8977 8978 8979 8978 8977 8973 8967 8960 8954 8953 8955 8959 8964
3704.1028 8968 8970 8970 8966 8959 8951 8943 8938 8938 8942 8947 8949 8949
3710.3704 8948 8953 8964 8977 8986 8985 8979 8970 8962 8955 8950 8946 8944
3716.6379 8945 8947 8950 8952 8952 8949 8945 8942 8944 8949 8958 8968 8975
3722.9055 8977 8974 8969 8962 8957 8957 8961 8971 8980 8984 8983 8976 8967
3729.1729 8958 8951 8949 8952 8962 8976 8992 9004 9012 9016 9015 9009 8996
3735.4404 8982 8971 8967 8965 8964 8963 8963 8964 8966 8968 8967 8961 8952
3741.7080 8944 8940 8945 8962 8993 9026 9031 9011 8988 8973 8964 8960 8958
3747.9756 8957 8953 8949 8947 8948 8953 8960 8968 8972 8971 8968 8964 8961
3754.2429 8959 8956 8953 8948 8941 8934 8927 8923 8922 8925 8932 8938 8941
3760.5105 8940 8935 8929 8924 8920 8920 8922 8925 8929 8933 8935 8936 8936
3766.7781 8935 8934 8934 8936 8938 8940 8942 8942 8943 8945 8947 8948 8948
3773.0457 8944 8939 8932 8925 8921 8919 8919 8920 8921 8922 8924 8926 8929
3779.3130 8931 8930 8928 8925 8921 8919 8919 8920 8922 8925 8928 8930 8931
3785.5806 8931 8932 8933 8933 8934 8936 8938 8940 8942 8943 8941 8937 8933
3791.8481 8930 8927 8926 8924 8921 8917 8914 8913 8916 8923 8930 8935 8935
3798.1157 8933 8930 8931 8936 8949 8969 8988 8994 8983 8965 8949 8938 8931
3804.3831 8928 8926 8926 8926 8927 8929 8930 8931 8933 8935 8937 8940 8942
3810.6506 8943 8943 8941 8938 8933 8928 8924 8923 8928 8939 8954 8962 8956
3816.9182 8942 8926 8914 8907 8904 8908 8919 8937 8957 8969 8970 8965 8957
3823.1858 8949 8940 8932 8927 8924 8925 8927 8929 8929 8926 8922 8918 8913
3829.4531 8910 8908 8908 8911 8916 8920 8922 8922 8922 8922 8923 8923 8924
3835.7207 8925 8927 8929 8932 8935 8936 8938 8940 8943 8944 8941 8934 8926
3841.9883 8919 8916 8918 8924 8928 8929 8927 8923 8919 8916 8916 8917 8920
3848.2559 8923 8927 8930 8932 8932 8930 8927 8924 8921 8920 8921 8923 8922
3854.5232 8921 8919 8918 8916 8915 8914 8915 8917 8921 8924 8926 8928 8928
3860.7908 8926 8920 8913 8907 8903 8905 8914 8930 8947 8954 8950 8940 8928
3867.0583 8918 8912 8910 8913 8923 8934 8941 8940 8935 8928 8922 8919 8918
3873.3259 8920 8924 8926 8925 8922 8919 8917 8916 8917 8919 8922 8926 8930
3879.5933 8933 8932 8928 8923 8920 8919 8920 8923 8925 8929 8932 8935 8935
3885.8608 8932 8927 8923 8920 8919 8918 8917 8915 8912 8910 8910 8914 8920
3892.1284 8925 8925 8924 8921 8918 8918 8919 8921 8925 8927 8929 8930 8930
3898.3960 8929 8930 8931 8933 8935 8937 8936 8933 8926 8919 8912 8908 8908
3904.6633 8914 8922 8930 8935 8938 8937 8934 8929 8923 8916 8910 8905 8902
3910.9309 8902 8904 8909 8914 8917 8918 8916 8913 8912 8914 8920 8928 8932
3917.1985 8931 8925 8917 8910 8906 8905 8906 8908 8911 8915 8918 8921 8921
3923.4661 8918 8913 8906 8902 8902 8903 8905 8907 8908 8909 8909 8910 8910
3929.7334 8910 8909 8910 8912 8917 8923 8929 8933 8934 8932 8929 8926 8923
3936.0010 8920 8917 8914 8912 8909 8907 8904 8902 8901 8901 8902 8904 8906
3942.2686 8908 8910 8910 8911 8912 8914 8916 8920 8923 8924 8924 8923 8921
3948.5361 8918 8916 8914 8912 8909 8908 8909 8913 8919 8927 8934 8937 8936
3954.8035 8931 8925 8919 8913 8910 8908 8907 8908 8910 8912 8914 8915 8917
3961.0710 8917 8917 8917 8916 8916 8916 8917 8918 8917 8917 8915 8915 8915
3967.3386 8916 8917 8917 8916 8914 8912 8911 8913 8915 8918 8920 8920 8919
3973.6062 8916 8914 8912 8912 8913 8914 8917 8920 8922 8924 8924 8923 8919
3979.8735 8913 8908 8904 8901 8901 8901 8901 8901 8903 8906 8911 8917 8922
3986.1411 8923 8922 8918 8914 8911 8909 8909 8908 8907 8906 8905 8904 8904
3992.4087 8903 8903 8903 8904 8904 8904 8903 8899 8894 8888 8883 8880 8881
3998.6763 8885 8892 8900 8906
##END= 
