##TITLE= STDCALCIOLATTATO
##JCAMP-DX= 4.24
##DATA TYPE= INFRARED SPECTRUM
##ORIGIN= JASCO
##OWNER= 
##DATE= 22/05/10
##TIME= 15:24:52
##SPECTROMETER/DATA SYSTEM= 
##RESOLUTION= 
##DELTAX=   0.48211674
##XUNITS= 1/CM
##YUNITS= TRANSMITTANCE
##XFACTOR= 1.00000
##YFACTOR= 0.0001
##FIRSTX=   599.7532
##LASTX=  4000.1226
##NPOINTS=     7054
##FIRSTY=      0.54654
##MAXY=      1.03021
##MINY=      0.48448
##XYDATA= (X++(Y..Y))
599.7532 5465 5468 5465 5462 5464 5476 5496 5518 5533 5539 5538 5538 5548 5570
606.5029 5603 5638 5667 5684 5688 5683 5673 5663 5655 5649 5643 5633 5619 5600
613.2525 5579 5560 5547 5542 5542 5544 5544 5542 5541 5543 5552 5565 5578 5583
620.0021 5579 5567 5549 5533 5523 5520 5523 5532 5544 5560 5581 5611 5649 5690
626.7518 5731 5764 5788 5805 5819 5836 5857 5880 5902 5919 5929 5934 5934 5932
633.5014 5927 5922 5919 5918 5920 5923 5921 5913 5897 5875 5852 5831 5816 5809
640.2510 5809 5814 5822 5830 5837 5842 5844 5842 5833 5817 5797 5777 5763 5754
647.0007 5749 5745 5738 5731 5728 5733 5746 5763 5780 5794 5803 5811 5818 5827
653.7503 5837 5849 5861 5871 5877 5878 5873 5863 5850 5838 5829 5822 5818 5815
660.4999 5811 5803 5791 5779 5771 5772 5782 5798 5812 5815 5805 5782 5749 5713
667.2496 5684 5686 5730 5770 5768 5744 5717 5696 5682 5675 5676 5682 5690 5696
673.9992 5696 5686 5664 5633 5600 5569 5545 5525 5506 5487 5470 5458 5455 5460
680.7488 5470 5479 5485 5488 5491 5495 5497 5496 5489 5479 5470 5467 5470 5479
687.4985 5490 5499 5504 5503 5500 5496 5492 5490 5486 5481 5470 5454 5435 5417
694.2481 5406 5408 5423 5449 5478 5505 5522 5532 5536 5540 5548 5562 5578 5594
700.9977 5608 5619 5627 5634 5641 5648 5657 5670 5687 5708 5728 5744 5751 5752
707.7474 5751 5752 5759 5770 5783 5793 5800 5805 5811 5820 5830 5840 5847 5850
714.4970 5852 5853 5855 5859 5863 5868 5870 5871 5868 5861 5851 5840 5831 5827
721.2466 5827 5829 5833 5836 5838 5842 5846 5849 5850 5848 5843 5840 5844 5857
727.9963 5877 5897 5910 5909 5896 5878 5864 5862 5872 5885 5894 5892 5878 5856
734.7459 5832 5812 5800 5794 5792 5789 5779 5757 5722 5678 5632 5593 5562 5538
741.4955 5513 5481 5440 5391 5335 5276 5211 5142 5072 5006 4952 4914 4892 4886
748.2452 4893 4910 4934 4958 4979 4992 5000 5012 5036 5078 5133 5189 5234 5264
754.9948 5279 5287 5294 5303 5315 5329 5349 5383 5431 5490 5545 5583 5592 5574
761.7444 5537 5496 5464 5443 5432 5424 5416 5412 5419 5445 5492 5554 5623 5690
768.4941 5750 5806 5861 5918 5974 6022 6056 6074 6076 6068 6056 6040 6019 5991
775.2437 5955 5914 5871 5832 5798 5771 5749 5734 5726 5729 5749 5787 5844 5918
781.9933 6006 6103 6204 6307 6408 6505 6594 6672 6739 6795 6846 6896 6950 7007
788.7430 7065 7119 7164 7200 7230 7260 7292 7327 7362 7393 7418 7437 7453 7470
795.4926 7490 7514 7541 7569 7597 7623 7646 7665 7680 7692 7702 7714 7727 7743
802.2422 7760 7776 7790 7802 7813 7824 7834 7843 7848 7851 7854 7861 7876 7901
808.9919 7934 7968 7995 8010 8010 7999 7983 7970 7963 7963 7968 7976 7984 7990
815.7415 7995 7999 8003 8008 8016 8025 8034 8039 8040 8038 8035 8034 8036 8042
822.4911 8051 8061 8070 8078 8084 8088 8091 8096 8101 8106 8109 8108 8105 8101
829.2408 8097 8095 8094 8093 8092 8090 8091 8093 8098 8103 8107 8109 8107 8103
835.9904 8098 8094 8093 8096 8104 8114 8124 8130 8130 8125 8116 8107 8099 8094
842.7401 8090 8085 8080 8075 8074 8076 8081 8086 8087 8080 8065 8045 8021 7998
849.4897 7976 7956 7938 7921 7904 7888 7871 7852 7829 7801 7768 7731 7689 7643
856.2393 7592 7537 7477 7415 7352 7291 7233 7181 7137 7104 7083 7076 7086 7114
862.9890 7159 7217 7285 7355 7424 7487 7545 7595 7637 7675 7710 7744 7779 7812
869.7386 7843 7868 7888 7905 7921 7937 7954 7970 7983 7992 7997 7997 7994 7989
876.4882 7983 7976 7971 7966 7963 7959 7953 7944 7929 7910 7887 7865 7847 7836
883.2379 7832 7831 7828 7821 7806 7786 7761 7734 7706 7677 7645 7613 7581 7551
889.9875 7522 7493 7460 7422 7377 7326 7272 7221 7174 7132 7093 7055 7018 6982
896.7371 6949 6922 6900 6883 6867 6852 6837 6824 6815 6813 6818 6829 6844 6863
903.4868 6882 6903 6923 6943 6964 6986 7010 7037 7066 7098 7133 7172 7215 7263
910.2364 7315 7371 7428 7484 7539 7594 7649 7706 7766 7828 7892 7955 8016 8075
916.9860 8132 8187 8239 8287 8330 8367 8402 8434 8467 8499 8529 8553 8569 8580
923.7357 8587 8592 8598 8605 8609 8609 8602 8587 8565 8537 8504 8466 8421 8367
930.4853 8303 8231 8150 8064 7973 7880 7788 7699 7617 7546 7490 7449 7425 7419
937.2349 7431 7459 7503 7559 7625 7697 7771 7844 7913 7976 8033 8085 8134 8183
943.9846 8232 8282 8330 8374 8412 8445 8474 8500 8525 8550 8576 8602 8628 8653
950.7342 8676 8697 8716 8736 8755 8776 8796 8816 8836 8855 8873 8892 8911 8930
957.4838 8949 8967 8984 8998 9010 9022 9035 9051 9070 9091 9113 9135 9157 9178
964.2335 9197 9216 9232 9248 9264 9280 9296 9310 9320 9327 9329 9329 9326 9321
970.9831 9316 9311 9308 9307 9309 9312 9314 9316 9318 9320 9324 9329 9335 9341
977.7327 9348 9356 9365 9376 9386 9393 9398 9401 9404 9408 9415 9426 9437 9446
984.4824 9454 9458 9462 9465 9470 9476 9484 9493 9503 9512 9521 9528 9535 9540
991.2320 9543 9546 9549 9551 9553 9556 9561 9567 9574 9582 9589 9595 9600 9606
997.9816 9612 9620 9630 9640 9647 9651 9651 9646 9639 9632 9628 9625 9625 9624
1004.7313 9622 9618 9613 9610 9608 9607 9607 9606 9604 9600 9596 9592 9589
1010.9988 9587 9585 9585 9586 9589 9593 9598 9604 9610 9614 9618 9621 9624
1017.2663 9626 9628 9628 9626 9623 9619 9615 9608 9600 9590 9582 9576 9574
1023.5338 9575 9578 9583 9590 9599 9611 9623 9633 9637 9634 9624 9610 9595
1029.8014 9581 9568 9558 9548 9538 9526 9512 9497 9480 9463 9447 9431 9413
1036.0688 9392 9369 9342 9315 9288 9261 9236 9209 9181 9148 9111 9068 9018
1042.3364 8962 8901 8834 8764 8691 8615 8536 8456 8376 8301 8236 8185 8151
1048.6039 8137 8141 8162 8196 8242 8295 8354 8417 8484 8554 8629 8707 8789
1054.8715 8874 8961 9046 9127 9199 9260 9308 9343 9367 9384 9398 9411 9423
1061.1389 9434 9440 9443 9443 9442 9444 9448 9454 9461 9466 9468 9468 9466
1067.4065 9466 9466 9466 9466 9465 9462 9459 9455 9453 9450 9446 9440 9433
1073.6740 9427 9423 9421 9423 9424 9425 9425 9424 9423 9421 9418 9411 9402
1079.9415 9391 9381 9372 9364 9358 9352 9346 9340 9333 9323 9311 9294 9274
1086.2090 9250 9224 9198 9171 9142 9112 9079 9041 8999 8953 8902 8846 8785
1092.4766 8719 8651 8583 8518 8459 8407 8363 8325 8293 8263 8236 8209 8182
1098.7440 8154 8126 8097 8071 8047 8027 8016 8015 8028 8055 8094 8141 8189
1105.0116 8232 8266 8287 8298 8300 8295 8284 8267 8242 8207 8164 8111 8051
1111.2791 7984 7909 7826 7732 7626 7509 7378 7234 7078 6912 6737 6558 6377
1117.5466 6196 6019 5849 5689 5542 5407 5285 5175 5077 4993 4927 4884 4868
1123.8141 4883 4927 4997 5090 5202 5330 5474 5636 5817 6018 6238 6473 6718
1130.0817 6965 7207 7438 7653 7850 8030 8193 8341 8476 8600 8714 8818 8912
1136.3491 8997 9073 9141 9203 9260 9311 9356 9392 9421 9443 9462 9481 9500
1142.6167 9519 9538 9556 9573 9589 9603 9613 9619 9621 9618 9613 9608 9604
1148.8842 9601 9599 9599 9601 9604 9608 9613 9616 9618 9618 9617 9617 9617
1155.1517 9617 9616 9615 9613 9611 9611 9612 9615 9619 9624 9628 9631 9633
1161.4192 9635 9638 9641 9646 9648 9648 9644 9636 9625 9614 9605 9598 9593
1167.6868 9591 9589 9587 9583 9579 9573 9569 9565 9562 9558 9554 9548 9543
1173.9542 9539 9536 9536 9535 9533 9530 9527 9524 9523 9521 9520 9520 9520
1180.2218 9520 9520 9519 9516 9512 9508 9504 9501 9500 9500 9502 9505 9509
1186.4893 9513 9515 9516 9515 9513 9510 9507 9502 9497 9491 9486 9482 9479
1192.7568 9477 9475 9472 9468 9463 9459 9455 9453 9451 9450 9448 9445 9443
1199.0243 9440 9438 9435 9432 9429 9427 9425 9425 9425 9424 9422 9417 9411
1205.2919 9405 9400 9395 9391 9387 9382 9378 9373 9370 9367 9365 9362 9359
1211.5593 9355 9352 9350 9349 9349 9350 9350 9350 9349 9349 9347 9344 9339
1217.8269 9333 9326 9320 9314 9310 9307 9306 9305 9304 9302 9300 9297 9295
1224.0944 9295 9295 9296 9297 9295 9292 9287 9282 9276 9271 9265 9258 9250
1230.3619 9242 9233 9225 9217 9211 9204 9199 9193 9187 9181 9175 9168 9162
1236.6294 9156 9152 9148 9145 9142 9139 9134 9127 9120 9112 9106 9100 9094
1242.8970 9086 9075 9061 9045 9028 9010 8993 8976 8958 8939 8917 8893 8866
1249.1644 8837 8808 8779 8749 8718 8685 8648 8607 8563 8516 8467 8417 8365
1255.4320 8312 8257 8201 8145 8090 8035 7980 7927 7874 7824 7776 7732 7691
1261.6995 7653 7616 7579 7540 7499 7453 7398 7326 7232 7114 6979 6843 6722
1267.9670 6626 6554 6491 6418 6319 6188 6033 5866 5705 5562 5444 5356 5301
1274.2345 5282 5303 5366 5468 5604 5766 5947 6138 6333 6528 6720 6905 7083
1280.5021 7253 7414 7568 7716 7857 7993 8121 8240 8350 8448 8536 8613 8681
1286.7695 8741 8794 8839 8878 8909 8934 8954 8969 8981 8989 8995 8998 8999
1293.0371 8997 8994 8990 8986 8980 8972 8960 8946 8928 8908 8887 8866 8844
1299.3046 8821 8796 8770 8741 8708 8671 8628 8579 8525 8465 8401 8330 8253
1305.5721 8169 8077 7976 7868 7752 7628 7498 7365 7233 7108 6998 6905 6835
1311.8396 6788 6766 6765 6783 6815 6858 6913 6983 7071 7175 7294 7422 7553
1318.1072 7683 7808 7926 8034 8129 8210 8280 8340 8394 8444 8491 8536 8576
1324.3746 8613 8645 8675 8701 8725 8747 8766 8783 8798 8810 8819 8827 8832
1330.6422 8836 8838 8839 8839 8839 8838 8836 8833 8827 8819 8809 8797 8785
1336.9097 8773 8761 8749 8735 8720 8706 8696 8690 8689 8687 8683 8675 8662
1343.1772 8646 8627 8609 8593 8578 8566 8555 8543 8530 8514 8494 8472 8447
1349.4447 8420 8393 8365 8337 8306 8273 8237 8200 8162 8123 8082 8039 7994
1355.7123 7945 7889 7824 7749 7666 7578 7490 7406 7329 7260 7201 7154 7122
1361.9797 7109 7118 7147 7190 7237 7280 7316 7343 7362 7372 7374 7370 7366
1368.2473 7365 7369 7376 7384 7388 7385 7377 7364 7350 7336 7327 7327 7337
1374.5148 7353 7369 7379 7380 7374 7362 7344 7320 7292 7260 7225 7188 7148
1380.7823 7107 7065 7022 6978 6932 6885 6836 6786 6736 6687 6639 6594 6552
1387.0498 6514 6479 6448 6416 6383 6349 6314 6278 6243 6208 6175 6143 6112
1393.3174 6083 6060 6046 6041 6040 6034 6023 6007 5991 5980 5981 5995 6019
1399.5848 6042 6058 6067 6073 6079 6088 6098 6110 6125 6146 6175 6213 6252
1405.8524 6287 6315 6337 6357 6379 6402 6428 6453 6477 6500 6523 6548 6573
1412.1199 6600 6626 6651 6674 6694 6713 6731 6750 6767 6783 6795 6804 6815
1418.3875 6836 6876 6929 6976 7004 7016 7019 7017 7015 7014 7017 7023 7032
1424.6549 7039 7045 7050 7054 7059 7064 7071 7081 7095 7118 7152 7196 7243
1430.9225 7286 7324 7361 7398 7435 7470 7496 7513 7523 7529 7542 7572 7621
1437.1899 7671 7709 7734 7754 7773 7793 7812 7830 7845 7857 7866 7873 7879
1443.4575 7884 7889 7895 7901 7906 7910 7912 7915 7918 7925 7935 7946 7955
1449.7250 7963 7969 7973 7975 7977 7978 7978 7976 7971 7963 7952 7939 7923
1455.9926 7905 7885 7865 7851 7845 7848 7854 7862 7868 7872 7873 7869 7863
1462.2600 7854 7843 7831 7817 7798 7772 7742 7713 7688 7664 7638 7610 7579
1468.5276 7545 7511 7476 7440 7402 7360 7313 7260 7207 7165 7137 7116 7098
1474.7950 7080 7061 7041 7023 7009 6997 6988 6978 6967 6955 6945 6939 6938
1481.0626 6942 6950 6960 6970 6980 6990 7000 7010 7019 7028 7041 7059 7084
1487.3301 7110 7131 7145 7156 7176 7217 7279 7342 7391 7425 7453 7477 7501
1493.5977 7523 7542 7561 7581 7606 7636 7666 7689 7707 7724 7745 7767 7787
1499.8651 7800 7808 7812 7817 7823 7830 7835 7836 7833 7827 7817 7805 7788
1506.1327 7768 7747 7735 7729 7727 7727 7728 7728 7726 7723 7719 7713 7707
1512.4001 7700 7690 7676 7657 7634 7608 7582 7558 7543 7536 7533 7526 7512
1518.6677 7492 7468 7439 7405 7368 7339 7326 7319 7308 7290 7268 7245 7221
1524.9352 7196 7172 7150 7131 7113 7096 7080 7064 7046 7026 7001 6972 6938
1531.2028 6902 6865 6833 6808 6794 6785 6775 6756 6729 6696 6658 6615 6569
1537.4702 6520 6465 6405 6344 6302 6296 6303 6301 6286 6261 6234 6207 6183
1543.7378 6161 6143 6127 6111 6089 6061 6026 5985 5941 5896 5854 5820 5796
1550.0052 5781 5763 5735 5699 5657 5613 5570 5532 5500 5469 5435 5392 5342
1556.2728 5284 5219 5145 5069 5030 5130 5300 5340 5301 5246 5193 5144 5098
1562.5403 5055 5016 4984 4963 4955 4955 4954 4946 4928 4903 4876 4853 4845
1568.8079 4866 4921 4984 5020 5028 5022 5013 5008 5005 5003 4997 4987 4977
1575.0753 4981 5021 5108 5205 5265 5289 5297 5304 5316 5336 5362 5391 5422
1581.3429 5453 5485 5519 5554 5591 5630 5669 5709 5749 5790 5830 5869 5907
1587.6105 5944 5981 6018 6057 6096 6137 6178 6219 6257 6294 6328 6361 6394
1593.8779 6429 6465 6503 6541 6577 6610 6643 6674 6704 6735 6766 6798 6831
1600.1455 6864 6897 6931 6964 6999 7037 7076 7116 7155 7190 7224 7259 7296
1606.4130 7335 7376 7416 7455 7496 7540 7587 7636 7684 7729 7769 7807 7844
1612.6805 7881 7917 7949 7977 7999 8020 8045 8087 8150 8215 8263 8295 8320
1618.9480 8345 8374 8406 8436 8462 8482 8497 8510 8529 8558 8593 8626 8652
1625.2156 8672 8687 8701 8716 8735 8759 8787 8814 8838 8859 8877 8895 8914
1631.4830 8932 8950 8964 8976 8983 8989 8992 8995 9002 9014 9030 9049 9069
1637.7506 9088 9107 9123 9137 9148 9157 9165 9173 9181 9191 9202 9214 9225
1644.0181 9235 9241 9242 9234 9216 9194 9180 9186 9206 9231 9253 9271 9284
1650.2856 9293 9301 9307 9312 9310 9289 9248 9235 9248 9266 9283 9297 9309
1656.5531 9320 9330 9338 9344 9348 9350 9351 9350 9348 9345 9339 9334 9330
1662.8207 9331 9338 9346 9353 9359 9361 9362 9360 9357 9352 9345 9336 9327
1669.0881 9319 9315 9315 9318 9324 9332 9340 9348 9353 9354 9352 9345 9337
1675.3557 9335 9341 9352 9363 9371 9376 9378 9375 9370 9365 9363 9364 9367
1681.6232 9369 9370 9369 9363 9355 9352 9361 9373 9381 9387 9391 9396 9402
1687.8907 9407 9411 9414 9417 9421 9426 9433 9440 9446 9451 9454 9455 9454
1694.1582 9452 9449 9444 9439 9437 9439 9443 9446 9449 9450 9452 9456 9471
1700.4258 9494 9508 9513 9514 9515 9515 9517 9519 9522 9526 9530 9536 9545
1706.6932 9556 9568 9578 9585 9589 9591 9591 9592 9594 9598 9603 9606 9606
1712.9608 9603 9597 9590 9586 9587 9592 9596 9594 9585 9571 9564 9574 9597
1719.2283 9619 9636 9647 9654 9657 9657 9658 9660 9664 9671 9679 9685 9689
1725.4958 9692 9694 9695 9696 9695 9692 9685 9675 9664 9658 9659 9664 9669
1731.7633 9672 9669 9659 9642 9628 9633 9652 9670 9682 9690 9695 9698 9700
1738.0309 9701 9701 9701 9701 9704 9707 9710 9710 9708 9703 9697 9692 9692
1744.2983 9696 9701 9707 9710 9710 9706 9701 9695 9693 9694 9697 9700 9704
1750.5659 9708 9715 9724 9735 9746 9754 9761 9765 9767 9768 9766 9764 9760
1756.8334 9758 9760 9765 9772 9780 9787 9791 9790 9786 9780 9777 9779 9785
1763.1010 9792 9798 9802 9806 9809 9812 9813 9814 9813 9811 9810 9811 9813
1769.3684 9815 9814 9810 9801 9787 9776 9774 9782 9794 9804 9812 9818 9822
1775.6360 9825 9827 9827 9826 9825 9824 9822 9819 9816 9814 9814 9818 9825
1781.9034 9834 9842 9847 9849 9848 9844 9841 9840 9841 9844 9847 9850 9852
1788.1710 9854 9855 9854 9852 9848 9843 9837 9834 9836 9843 9853 9860 9864
1794.4385 9866 9867 9869 9872 9877 9883 9888 9891 9891 9889 9886 9883 9880
1800.7061 9880 9880 9882 9886 9891 9897 9902 9907 9910 9912 9913 9913 9913
1806.9735 9913 9914 9915 9917 9918 9918 9917 9915 9914 9916 9919 9924 9929
1813.2411 9933 9937 9940 9943 9945 9945 9944 9943 9943 9943 9944 9946 9947
1819.5085 9949 9950 9950 9950 9950 9948 9945 9941 9937 9932 9929 9928 9930
1825.7761 9935 9941 9944 9945 9942 9934 9924 9917 9918 9930 9946 9960 9967
1832.0436 9970 9970 9970 9972 9975 9977 9976 9972 9964 9954 9946 9940 9939
1838.3112 9940 9942 9944 9944 9943 9941 9939 9940 9943 9948 9953 9957 9958
1844.5786 9958 9960 9962 9963 9963 9961 9958 9957 9959 9965 9973 9979 9984
1850.8462 9986 9986 9985 9985 9985 9985 9985 9984 9984 9985 9990 9998 10008
1857.1136 10018 10025 10026 10022 10017 10012 10010 10011 10012 10013 10012
1862.4170 10009 10006 10003 10003 10004 10005 10005 10004 10001 9998 9995 9994
1868.2024 9995 9997 9997 9996 9994 9992 9994 9998 10004 10012 10020 10027
1873.9878 10034 10039 10042 10041 10035 10027 10019 10013 10012 10016 10023
1879.2910 10032 10040 10048 10053 10055 10055 10053 10050 10046 10042 10039
1884.5944 10037 10038 10039 10041 10040 10035 10025 10011 9998 9988 9986 9993
1890.3798 10007 10024 10041 10057 10069 10074 10072 10063 10051 10042 10038
1895.6830 10037 10038 10037 10035 10033 10034 10037 10042 10046 10047 10046
1900.9863 10045 10044 10042 10040 10036 10033 10032 10038 10048 10059 10067
1906.2896 10066 10059 10047 10037 10032 10031 10033 10033 10033 10035 10042
1911.5929 10055 10070 10080 10082 10072 10057 10043 10037 10039 10050 10063
1916.8961 10075 10084 10087 10088 10087 10087 10086 10084 10080 10072 10062
1922.1995 10054 10050 10051 10056 10061 10063 10064 10063 10064 10067 10072
1927.5027 10075 10073 10062 10044 10021 10004 10000 10015 10045 10082 10113
1932.8060 10131 10133 10125 10115 10107 10101 10095 10088 10081 10076 10077
1938.1093 10083 10092 10098 10100 10097 10091 10085 10081 10082 10088 10096
1943.4126 10103 10104 10098 10088 10076 10068 10068 10077 10093 10108 10118
1948.7158 10118 10107 10091 10072 10055 10040 10024 10010 9999 10001 10018
1954.0192 10052 10094 10136 10168 10188 10198 10197 10186 10159 10120 10076
1959.3224 10044 10035 10055 10093 10134 10161 10169 10161 10147 10140 10144
1964.6257 10156 10168 10166 10142 10093 10031 9977 9951 9965 10015 10086 10163
1970.4111 10229 10273 10296 10302 10301 10297 10287 10264 10219 10153 10076
1975.7144 10007 9963 9950 9961 9978 9987 9984 9974 9969 9973 9986 9999 10007
1981.9819 10008 10006 10009 10022 10049 10084 10122 10153 10172 10177 10171
1987.2852 10156 10132 10099 10057 10011 9971 9949 9953 9981 10021 10053 10063
1993.0706 10049 10024 10000 9988 9988 9996 10009 10023 10039 10058 10080 10105
1998.8560 10128 10146 10157 10159 10153 10142 10129 10117 10105 10090 10071
2004.1593 10051 10039 10044 10071 10112 10152 10172 10158 10116 10062 10016
2009.4625 9992 9990 9999 10005 10001 9987 9973 9967 9974 9991 10014 10040
2015.2479 10072 10108 10143 10165 10163 10137 10098 10064 10051 10064 10097
2020.5513 10139 10174 10191 10186 10161 10122 10080 10047 10031 10037 10062
2025.8545 10104 10154 10205 10248 10276 10282 10264 10220 10158 10090 10036
2031.1578 10013 10028 10078 10141 10193 10210 10189 10139 10080 10029 9994
2036.4611 9975 9968 9972 9987 10011 10038 10062 10076 10078 10071 10065 10064
2042.2465 10072 10085 10097 10105 10109 10111 10112 10113 10109 10098 10080
2047.5498 10059 10040 10025 10011 9993 9968 9939 9914 9901 9905 9922 9946 9971
2053.8174 9994 10014 10033 10050 10062 10065 10058 10045 10032 10025 10025
2059.1206 10028 10030 10025 10015 10002 9991 9982 9974 9963 9947 9928 9910
2064.9060 9897 9894 9901 9915 9934 9957 9983 10012 10039 10062 10075 10077
2070.6914 10068 10052 10032 10013 9997 9985 9978 9975 9977 9981 9985 9986 9980
2076.9590 9969 9960 9957 9964 9980 9999 10015 10022 10020 10012 10002 9994
2082.7444 9989 9987 9988 9990 9994 9998 10002 10004 10004 10003 10003 10007
2088.5298 10014 10024 10032 10034 10029 10020 10010 10006 10010 10020 10030
2093.8330 10034 10028 10011 9986 9960 9940 9934 9943 9964 9991 10014 10023
2099.6184 10017 9999 9979 9964 9961 9970 9987 10004 10016 10019 10015 10006
2105.4038 9995 9987 9981 9977 9976 9978 9979 9977 9968 9951 9928 9906 9893
2111.6714 9891 9899 9910 9917 9918 9919 9924 9940 9963 9987 10005 10014 10014
2117.9387 10009 10002 9993 9981 9965 9946 9930 9918 9914 9915 9921 9929 9939
2124.2063 9949 9957 9962 9963 9961 9958 9958 9962 9969 9977 9983 9988 9992
2130.4739 9996 10002 10009 10016 10022 10028 10032 10035 10033 10026 10012
2135.7771 9994 9978 9973 9981 10003 10030 10054 10066 10067 10065 10067 10076
2141.5625 10086 10088 10073 10043 10008 9982 9976 9989 10013 10037 10054 10060
2147.3479 10058 10047 10025 9992 9948 9898 9854 9825 9823 9852 9912 9994 10083
2153.6155 10163 10219 10246 10250 10239 10224 10210 10197 10182 10161 10130
2158.9187 10092 10049 10009 9976 9955 9942 9933 9920 9899 9874 9852 9842 9850
2165.1863 9873 9903 9926 9935 9928 9910 9892 9883 9889 9911 9938 9954 9944
2171.4539 9907 9855 9814 9808 9847 9916 9988 10030 10027 9988 9942 9915 9919
2177.7212 9948 9982 10008 10017 10013 10002 9989 9973 9954 9934 9918 9911 9916
2183.9888 9929 9944 9954 9955 9950 9941 9931 9919 9904 9889 9879 9879 9889
2190.2563 9907 9925 9936 9938 9933 9924 9917 9911 9908 9909 9915 9923 9929
2196.5239 9929 9919 9903 9888 9881 9884 9893 9903 9910 9915 9921 9929 9939
2202.7913 9947 9950 9949 9944 9938 9931 9923 9913 9902 9893 9888 9889 9894
2209.0588 9901 9907 9908 9902 9888 9871 9853 9839 9831 9829 9831 9833 9836
2215.3264 9838 9842 9851 9865 9882 9897 9905 9903 9895 9887 9884 9887 9890
2221.5940 9888 9879 9870 9872 9891 9925 9959 9977 9969 9938 9898 9863 9843
2227.8613 9838 9840 9846 9852 9859 9869 9882 9897 9911 9924 9933 9938 9935
2234.1289 9927 9914 9903 9900 9908 9927 9949 9968 9976 9974 9964 9955 9950
2240.3965 9951 9954 9953 9945 9932 9920 9912 9912 9918 9924 9925 9921 9913
2246.6641 9904 9898 9894 9893 9891 9890 9889 9891 9897 9907 9919 9929 9936
2252.9314 9938 9934 9927 9915 9901 9887 9876 9871 9873 9879 9886 9887 9879
2259.1990 9864 9847 9835 9831 9837 9851 9866 9877 9883 9884 9884 9885 9886
2265.4666 9887 9884 9876 9864 9850 9836 9824 9816 9812 9812 9815 9818 9819
2271.7341 9817 9810 9802 9793 9786 9784 9785 9790 9797 9802 9805 9804 9800
2278.0015 9798 9799 9803 9809 9813 9814 9809 9800 9790 9781 9775 9773 9775
2284.2690 9780 9786 9792 9797 9800 9801 9801 9799 9795 9789 9783 9778 9776
2290.5366 9778 9782 9787 9791 9791 9788 9782 9775 9769 9766 9764 9763 9762
2296.8042 9760 9759 9757 9756 9755 9755 9755 9754 9753 9754 9756 9759 9763
2303.0715 9765 9764 9759 9751 9742 9733 9724 9717 9711 9705 9700 9695 9692
2309.3391 9691 9692 9693 9693 9691 9685 9677 9667 9659 9656 9657 9662 9667
2315.6067 9670 9670 9668 9663 9657 9649 9639 9629 9618 9609 9600 9592 9582
2321.8743 9570 9559 9551 9551 9560 9575 9592 9605 9611 9609 9602 9596 9595
2328.1416 9601 9611 9618 9616 9604 9588 9577 9576 9587 9605 9624 9637 9642
2334.4092 9642 9639 9633 9625 9610 9589 9566 9548 9541 9547 9563 9581 9592
2340.6768 9591 9582 9570 9561 9558 9562 9569 9579 9591 9606 9625 9646 9664
2346.9443 9676 9682 9682 9678 9671 9661 9649 9635 9618 9601 9585 9571 9560
2353.2117 9553 9551 9554 9561 9571 9581 9587 9586 9575 9553 9522 9484 9447
2359.4792 9420 9408 9413 9430 9454 9479 9504 9529 9551 9569 9579 9581 9576
2365.7468 9570 9565 9563 9565 9571 9580 9590 9602 9611 9616 9617 9615 9613
2372.0144 9615 9622 9636 9658 9685 9712 9735 9749 9753 9750 9742 9736 9735
2378.2817 9738 9745 9754 9762 9769 9776 9784 9792 9802 9813 9824 9834 9843
2384.5493 9850 9854 9855 9854 9852 9849 9847 9845 9844 9845 9847 9850 9852
2390.8169 9853 9852 9849 9845 9841 9838 9835 9833 9831 9830 9830 9830 9830
2397.0845 9831 9832 9833 9836 9839 9841 9841 9839 9836 9833 9832 9834 9839
2403.3518 9845 9849 9850 9848 9843 9838 9834 9831 9828 9826 9824 9823 9823
2409.6194 9824 9825 9826 9825 9823 9821 9820 9822 9825 9829 9832 9833 9831
2415.8870 9829 9826 9824 9822 9820 9817 9816 9816 9820 9828 9835 9841 9842
2422.1545 9839 9833 9827 9822 9819 9818 9818 9817 9817 9819 9823 9827 9829
2428.4219 9827 9821 9814 9808 9805 9805 9807 9809 9811 9811 9812 9813 9814
2434.6895 9814 9813 9812 9812 9812 9814 9817 9820 9821 9821 9818 9814 9809
2440.9570 9807 9807 9812 9819 9826 9831 9832 9830 9825 9819 9813 9808 9804
2447.2246 9803 9803 9804 9806 9808 9809 9809 9808 9808 9810 9811 9814 9815
2453.4919 9816 9815 9814 9813 9811 9809 9805 9802 9799 9798 9800 9803 9806
2459.7595 9809 9810 9810 9811 9814 9818 9822 9823 9823 9820 9816 9813 9811
2466.0271 9811 9812 9813 9814 9813 9810 9805 9799 9794 9790 9789 9791 9794
2472.2947 9799 9804 9807 9809 9809 9808 9806 9805 9805 9807 9810 9812 9813
2478.5620 9810 9803 9794 9785 9780 9779 9782 9788 9793 9795 9793 9790 9788
2484.8296 9788 9792 9798 9802 9804 9801 9796 9790 9784 9780 9779 9780 9782
2491.0972 9784 9787 9788 9789 9790 9790 9789 9788 9787 9786 9787 9788 9790
2497.3647 9792 9792 9792 9791 9791 9791 9792 9791 9789 9784 9778 9772 9767
2503.6321 9763 9761 9762 9766 9773 9779 9784 9783 9778 9769 9760 9755 9755
2509.8997 9759 9765 9771 9773 9771 9765 9756 9746 9737 9733 9734 9740 9749
2516.1672 9758 9764 9765 9761 9754 9744 9734 9725 9717 9712 9710 9710 9712
2522.4348 9715 9717 9719 9717 9714 9708 9703 9699 9698 9698 9699 9700 9700
2528.7021 9701 9702 9703 9702 9697 9689 9680 9672 9668 9669 9672 9673 9671
2534.9697 9666 9658 9650 9644 9640 9639 9639 9640 9642 9644 9648 9654 9660
2541.2373 9667 9672 9675 9674 9672 9671 9673 9678 9685 9693 9698 9700 9699
2547.5049 9698 9696 9695 9695 9697 9701 9707 9714 9719 9721 9720 9717 9716
2553.7722 9717 9720 9723 9725 9724 9720 9716 9713 9712 9712 9713 9713 9711
2560.0398 9707 9703 9699 9695 9692 9689 9685 9681 9679 9678 9682 9687 9694
2566.3074 9700 9704 9705 9704 9702 9699 9696 9694 9693 9693 9694 9696 9699
2572.5750 9702 9705 9707 9706 9703 9697 9690 9684 9679 9678 9680 9683 9684
2578.8425 9683 9679 9674 9668 9664 9662 9661 9661 9662 9661 9661 9659 9657
2585.1099 9655 9651 9647 9643 9638 9632 9628 9625 9625 9626 9629 9631 9633
2591.3774 9632 9630 9628 9623 9618 9610 9602 9596 9593 9593 9596 9599 9600
2597.6450 9599 9596 9591 9587 9583 9580 9578 9578 9578 9579 9581 9584 9586
2603.9126 9586 9584 9580 9573 9566 9559 9552 9548 9545 9544 9543 9542 9539
2610.1799 9534 9528 9522 9517 9515 9515 9516 9517 9518 9519 9520 9520 9521
2616.4475 9521 9521 9522 9523 9524 9525 9524 9521 9516 9511 9507 9505 9505
2622.7151 9505 9504 9502 9499 9496 9493 9492 9490 9487 9484 9480 9477 9474
2628.9827 9472 9470 9467 9464 9460 9456 9451 9447 9443 9438 9434 9430 9428
2635.2500 9426 9425 9423 9421 9418 9415 9413 9410 9405 9400 9393 9387 9381
2641.5176 9377 9373 9369 9364 9359 9354 9350 9348 9346 9344 9341 9336 9329
2647.7852 9323 9317 9313 9311 9309 9306 9300 9292 9283 9275 9268 9262 9258
2654.0527 9255 9251 9247 9243 9239 9236 9232 9229 9225 9222 9219 9216 9213
2660.3201 9210 9207 9205 9205 9205 9206 9207 9209 9210 9210 9211 9211 9213
2666.5876 9216 9220 9223 9226 9227 9227 9226 9224 9224 9225 9226 9229 9231
2672.8552 9232 9231 9229 9225 9221 9220 9221 9224 9227 9231 9232 9232 9231
2679.1228 9231 9232 9234 9236 9237 9238 9238 9237 9236 9235 9234 9233 9232
2685.3901 9232 9232 9232 9232 9231 9229 9226 9223 9219 9215 9210 9205 9200
2691.6577 9194 9189 9186 9185 9185 9186 9186 9184 9182 9179 9177 9174 9172
2697.9253 9168 9164 9158 9153 9148 9143 9138 9133 9127 9121 9116 9112 9109
2704.1929 9107 9104 9101 9098 9094 9091 9088 9086 9084 9082 9082 9082 9083
2710.4602 9085 9086 9087 9086 9084 9082 9080 9080 9080 9081 9082 9082 9083
2716.7278 9083 9082 9081 9078 9075 9071 9069 9068 9067 9066 9064 9060 9057
2722.9954 9053 9048 9042 9036 9029 9022 9016 9013 9011 9011 9010 9007 9003
2729.2629 8997 8991 8985 8979 8972 8964 8955 8946 8936 8926 8915 8906 8897
2735.5303 8889 8883 8878 8873 8867 8861 8855 8849 8842 8835 8827 8818 8810
2741.7979 8801 8793 8786 8778 8772 8767 8764 8763 8762 8761 8759 8756 8752
2748.0654 8750 8747 8746 8743 8739 8733 8728 8724 8722 8724 8727 8732 8737
2754.3330 8741 8742 8742 8739 8735 8732 8730 8731 8734 8737 8740 8741 8742
2760.6003 8742 8742 8742 8743 8743 8741 8738 8733 8728 8722 8717 8714 8713
2766.8679 8713 8714 8715 8718 8721 8723 8724 8723 8722 8720 8718 8717 8717
2773.1355 8716 8714 8710 8705 8700 8696 8692 8690 8689 8687 8684 8680 8677
2779.4031 8674 8672 8670 8668 8665 8660 8655 8649 8644 8641 8639 8638 8638
2785.6704 8638 8637 8635 8631 8624 8616 8607 8598 8592 8587 8584 8580 8577
2791.9380 8572 8569 8566 8564 8561 8558 8553 8549 8544 8539 8535 8531 8528
2798.2056 8524 8521 8519 8517 8515 8512 8508 8504 8498 8492 8487 8482 8477
2804.4731 8474 8471 8468 8464 8459 8454 8449 8445 8442 8440 8439 8438 8438
2810.7405 8436 8433 8427 8421 8413 8406 8401 8397 8394 8390 8387 8383 8380
2817.0081 8377 8376 8376 8376 8377 8376 8374 8371 8366 8359 8352 8345 8338
2823.2756 8331 8324 8318 8312 8308 8304 8301 8297 8293 8287 8282 8276 8271
2829.5432 8265 8260 8256 8253 8250 8248 8244 8237 8227 8216 8205 8197 8192
2835.8105 8189 8186 8182 8175 8166 8155 8144 8135 8127 8121 8115 8108 8101
2842.0781 8092 8081 8071 8059 8047 8034 8021 8008 7995 7982 7969 7956 7945
2848.3457 7934 7926 7919 7913 7908 7903 7897 7891 7885 7879 7874 7869 7866
2854.6133 7865 7866 7868 7870 7871 7870 7868 7864 7860 7857 7856 7855 7856
2860.8806 7859 7862 7865 7868 7871 7873 7875 7876 7876 7876 7876 7875 7875
2867.1482 7876 7878 7882 7887 7890 7891 7890 7888 7885 7882 7880 7878 7875
2873.4158 7872 7869 7866 7864 7862 7863 7864 7865 7865 7864 7861 7856 7851
2879.6833 7846 7841 7838 7836 7835 7832 7828 7822 7815 7808 7803 7798 7796
2885.9507 7794 7793 7791 7789 7786 7784 7783 7783 7783 7783 7782 7780 7777
2892.2183 7774 7772 7772 7773 7775 7778 7780 7781 7780 7778 7775 7773 7770
2898.4858 7767 7763 7759 7754 7749 7746 7743 7741 7738 7736 7732 7728 7722
2904.7534 7715 7707 7698 7687 7676 7666 7658 7651 7647 7643 7639 7634 7628
2911.0208 7622 7614 7607 7598 7588 7578 7567 7557 7548 7542 7537 7532 7527
2917.2883 7523 7518 7513 7510 7508 7507 7507 7508 7510 7511 7510 7508 7504
2923.5559 7499 7493 7488 7484 7481 7480 7478 7477 7475 7473 7471 7470 7468
2929.8235 7466 7462 7455 7447 7437 7428 7422 7418 7418 7419 7421 7424 7427
2936.0908 7429 7431 7431 7431 7429 7427 7425 7425 7427 7430 7435 7438 7440
2942.3584 7438 7434 7429 7424 7421 7421 7424 7428 7433 7437 7440 7441 7443
2948.6260 7444 7445 7445 7445 7445 7446 7446 7447 7447 7446 7443 7440 7437
2954.8936 7436 7437 7440 7443 7446 7449 7452 7455 7458 7462 7463 7463 7460
2961.1609 7456 7452 7449 7447 7447 7447 7447 7448 7451 7454 7457 7457 7455
2967.4285 7450 7444 7438 7435 7434 7433 7432 7430 7425 7420 7413 7407 7400
2973.6960 7392 7383 7372 7360 7347 7335 7325 7318 7315 7315 7318 7323 7329
2979.9636 7335 7342 7349 7355 7359 7362 7364 7366 7369 7374 7380 7387 7394
2986.2310 7399 7402 7405 7407 7410 7415 7420 7425 7431 7436 7441 7446 7452
2992.4985 7458 7464 7471 7479 7489 7500 7514 7529 7545 7561 7576 7588 7596
2998.7661 7602 7606 7607 7609 7610 7611 7612 7613 7614 7616 7619 7623 7629
3005.0337 7636 7645 7653 7660 7667 7672 7675 7679 7681 7684 7686 7688 7690
3011.3010 7694 7698 7702 7707 7711 7715 7719 7722 7725 7727 7728 7728 7726
3017.5686 7723 7720 7718 7718 7720 7722 7724 7724 7724 7723 7723 7724 7727
3023.8362 7730 7732 7733 7731 7730 7727 7726 7725 7725 7725 7725 7725 7724
3030.1038 7723 7723 7722 7721 7720 7718 7716 7713 7711 7711 7712 7713 7715
3036.3711 7715 7713 7710 7706 7702 7700 7698 7697 7695 7692 7688 7684 7681
3042.6387 7679 7679 7680 7682 7683 7682 7680 7677 7672 7666 7661 7656 7652
3048.9063 7651 7652 7654 7655 7655 7653 7650 7646 7643 7641 7639 7638 7636
3055.1738 7633 7630 7627 7624 7622 7619 7616 7612 7609 7607 7606 7607 7608
3061.4412 7608 7606 7601 7595 7589 7585 7582 7579 7576 7572 7567 7562 7556
3067.7087 7550 7546 7543 7541 7539 7537 7534 7529 7523 7518 7514 7512 7512
3073.9763 7512 7512 7512 7511 7508 7505 7501 7496 7491 7486 7480 7473 7466
3080.2439 7460 7455 7452 7449 7447 7443 7438 7433 7430 7428 7429 7431 7433
3086.5112 7434 7434 7433 7430 7425 7419 7411 7404 7397 7393 7390 7387 7384
3092.7788 7380 7376 7373 7371 7369 7368 7366 7364 7363 7362 7360 7356 7350
3099.0464 7343 7335 7328 7325 7324 7323 7322 7319 7315 7311 7308 7304 7301
3105.3140 7296 7291 7286 7282 7281 7282 7283 7282 7279 7274 7268 7264 7263
3111.5813 7265 7269 7271 7271 7267 7261 7254 7249 7245 7245 7246 7249 7251
3117.8489 7252 7248 7242 7234 7227 7223 7223 7226 7231 7235 7237 7238 7237
3124.1165 7236 7233 7229 7226 7225 7228 7233 7240 7246 7248 7245 7238 7230
3130.3840 7223 7218 7217 7219 7224 7229 7235 7242 7250 7257 7264 7270 7273
3136.6514 7272 7269 7265 7259 7254 7251 7249 7250 7253 7257 7262 7269 7276
3142.9189 7284 7291 7296 7299 7301 7302 7304 7306 7308 7309 7310 7311 7313
3149.1865 7317 7321 7326 7330 7333 7335 7338 7339 7340 7340 7340 7341 7344
3155.4541 7350 7357 7365 7373 7381 7387 7393 7398 7401 7402 7403 7404 7406
3161.7214 7411 7415 7420 7423 7425 7427 7431 7437 7445 7452 7458 7462 7465
3167.9890 7466 7466 7467 7469 7471 7475 7478 7482 7485 7488 7490 7492 7495
3174.2566 7500 7505 7509 7514 7518 7522 7526 7532 7538 7544 7547 7548 7547
3180.5242 7544 7542 7540 7541 7544 7548 7553 7559 7564 7569 7572 7574 7576
3186.7915 7578 7583 7589 7595 7601 7606 7609 7610 7610 7609 7609 7608 7609
3193.0591 7610 7613 7617 7621 7626 7630 7635 7640 7645 7651 7656 7660 7663
3199.3267 7664 7664 7663 7661 7660 7659 7660 7663 7668 7674 7681 7687 7691
3205.5942 7694 7697 7701 7705 7708 7711 7713 7712 7710 7709 7710 7714 7720
3211.8616 7728 7734 7737 7737 7736 7734 7733 7732 7732 7733 7734 7736 7741
3218.1292 7748 7754 7761 7766 7769 7772 7776 7781 7785 7789 7792 7794 7795
3224.3967 7796 7797 7800 7805 7809 7814 7816 7814 7810 7805 7803 7806 7813
3230.6643 7824 7834 7840 7844 7844 7844 7846 7850 7855 7859 7863 7864 7865
3236.9316 7867 7869 7874 7879 7884 7889 7891 7891 7889 7887 7884 7883 7883
3243.1992 7885 7889 7895 7901 7908 7914 7917 7917 7916 7915 7917 7921 7927
3249.4668 7932 7934 7935 7935 7935 7936 7938 7940 7942 7943 7945 7947 7949
3255.7344 7951 7953 7954 7954 7955 7956 7957 7958 7959 7961 7966 7972 7979
3262.0017 7985 7989 7990 7990 7990 7991 7995 7999 8002 8004 8005 8004 8004
3268.2693 8003 8002 8001 8002 8004 8007 8012 8018 8025 8031 8037 8042 8045
3274.5369 8045 8044 8043 8043 8046 8050 8055 8059 8063 8066 8068 8071 8073
3280.8044 8075 8077 8079 8082 8087 8093 8100 8106 8111 8115 8117 8118 8116
3287.0718 8113 8110 8105 8102 8099 8099 8100 8104 8111 8119 8128 8135 8139
3293.3394 8140 8139 8138 8139 8143 8149 8156 8161 8164 8164 8161 8157 8153
3299.6069 8150 8150 8151 8153 8156 8159 8162 8165 8169 8173 8176 8178 8180
3305.8745 8180 8181 8183 8187 8193 8200 8206 8209 8210 8209 8207 8206 8206
3312.1418 8207 8210 8214 8218 8222 8227 8232 8236 8238 8238 8236 8234 8233
3318.4094 8234 8238 8243 8248 8252 8254 8255 8255 8255 8255 8256 8258 8262
3324.6770 8265 8267 8269 8269 8269 8270 8272 8275 8278 8281 8282 8283 8284
3330.9446 8285 8285 8285 8285 8284 8284 8286 8288 8292 8294 8296 8297 8300
3337.2119 8305 8311 8318 8322 8324 8325 8324 8326 8329 8334 8339 8344 8347
3343.4795 8349 8349 8349 8348 8347 8346 8345 8344 8344 8344 8347 8352 8359
3349.7471 8368 8378 8386 8392 8395 8397 8398 8400 8402 8404 8407 8409 8412
3356.0146 8415 8419 8424 8430 8436 8442 8447 8451 8454 8458 8461 8463 8465
3362.2820 8468 8470 8472 8475 8478 8480 8482 8484 8487 8492 8498 8504 8510
3368.5496 8515 8520 8524 8529 8533 8535 8534 8532 8529 8529 8531 8535 8541
3374.8171 8546 8551 8556 8563 8572 8582 8590 8595 8596 8597 8597 8601 8606
3381.0847 8612 8616 8618 8618 8617 8617 8620 8626 8633 8641 8646 8650 8653
3387.3521 8656 8660 8665 8672 8679 8685 8689 8691 8693 8694 8697 8701 8706
3393.6196 8713 8718 8723 8727 8730 8732 8735 8738 8743 8748 8755 8762 8770
3399.8872 8777 8784 8790 8796 8803 8810 8816 8821 8823 8824 8824 8824 8827
3406.1548 8832 8840 8851 8863 8874 8884 8889 8890 8888 8886 8886 8889 8894
3412.4221 8900 8907 8913 8918 8923 8929 8934 8938 8941 8942 8942 8942 8944
3418.6897 8947 8953 8961 8969 8977 8981 8983 8981 8979 8978 8979 8983 8989
3424.9573 8995 9001 9005 9009 9013 9018 9023 9028 9032 9036 9041 9046 9050
3431.2249 9053 9054 9053 9053 9054 9056 9061 9066 9070 9071 9071 9069 9067
3437.4922 9067 9070 9076 9084 9093 9102 9112 9122 9131 9138 9143 9146 9146
3443.7598 9145 9143 9140 9136 9132 9129 9131 9137 9147 9159 9172 9184 9195
3450.0273 9205 9212 9217 9220 9222 9223 9227 9232 9240 9249 9257 9264 9268
3456.2949 9270 9270 9271 9274 9279 9288 9297 9306 9313 9316 9315 9312 9306
3462.5623 9299 9292 9287 9284 9283 9284 9286 9286 9287 9287 9287 9287 9287
3468.8298 9288 9289 9291 9293 9295 9297 9298 9299 9301 9304 9308 9312 9314
3475.0974 9313 9311 9310 9310 9313 9319 9326 9332 9336 9337 9335 9332 9329
3481.3650 9327 9326 9326 9328 9330 9332 9335 9341 9348 9356 9366 9374 9380
3487.6323 9383 9384 9382 9381 9380 9381 9385 9389 9395 9399 9400 9399 9395
3493.8999 9391 9388 9387 9390 9396 9405 9414 9420 9423 9423 9422 9420 9419
3500.1675 9420 9422 9425 9427 9428 9430 9433 9438 9446 9453 9460 9465 9468
3506.4351 9470 9470 9470 9469 9466 9462 9459 9457 9460 9466 9476 9487 9497
3512.7024 9506 9513 9518 9522 9525 9528 9531 9532 9532 9533 9534 9537 9540
3518.9700 9543 9544 9542 9539 9537 9536 9536 9538 9541 9544 9545 9546 9547
3525.2375 9547 9547 9547 9551 9558 9569 9584 9599 9613 9623 9629 9631 9632
3531.5051 9633 9633 9634 9633 9632 9631 9630 9632 9636 9641 9648 9655 9663
3537.7725 9671 9678 9684 9687 9688 9688 9688 9688 9691 9694 9698 9702 9706
3544.0400 9709 9710 9710 9709 9708 9709 9716 9726 9738 9749 9757 9760 9760
3550.3076 9756 9752 9748 9746 9747 9752 9761 9774 9788 9803 9814 9822 9823
3556.5752 9821 9818 9814 9813 9813 9814 9816 9819 9824 9829 9835 9841 9846
3562.8428 9848 9848 9846 9841 9833 9824 9813 9805 9804 9811 9825 9842 9858
3569.1101 9871 9879 9885 9889 9893 9896 9900 9905 9911 9917 9922 9925 9925
3575.3777 9922 9918 9914 9914 9916 9921 9925 9929 9931 9932 9934 9935 9936
3581.6453 9936 9936 9937 9939 9942 9946 9948 9948 9944 9934 9919 9903 9893
3587.9128 9891 9900 9915 9931 9943 9951 9954 9953 9949 9946 9945 9946 9948
3594.1802 9950 9950 9950 9950 9952 9956 9961 9966 9969 9969 9968 9967 9969
3600.4478 9978 9990 10004 10014 10017 10013 10005 9999 9996 9998 10001 10004
3606.2332 10001 9992 9980 9970 9967 9973 9984 9996 10005 10007 10003 9994 9981
3612.5007 9970 9966 9970 9982 9999 10015 10030 10039 10043 10041 10031 10014
3618.2861 9995 9978 9969 9971 9981 9995 10010 10023 10034 10043 10049 10054
3624.0715 10054 10049 10040 10027 10014 10002 9994 9989 9987 9986 9988 9995
3629.8569 10007 10022 10038 10053 10065 10073 10075 10073 10067 10063 10060
3635.1602 10060 10060 10062 10064 10067 10071 10078 10085 10093 10098 10101
3640.4634 10100 10096 10091 10086 10084 10084 10085 10086 10085 10082 10075
3645.7668 10064 10049 10031 10013 9997 9982 9966 9954 9958 9986 10031 10074
3651.5522 10104 10122 10131 10133 10131 10126 10118 10107 10095 10087 10087
3656.8555 10095 10104 10113 10120 10124 10127 10129 10132 10134 10137 10141
3662.1587 10144 10145 10144 10142 10139 10138 10138 10140 10142 10143 10140
3667.4619 10133 10121 10102 10079 10058 10049 10057 10078 10101 10118 10127
3672.7654 10127 10115 10089 10045 9990 9962 9984 10025 10058 10080 10094 10103
3678.5508 10111 10118 10123 10128 10131 10135 10140 10146 10151 10154 10153
3683.8540 10149 10142 10134 10127 10120 10113 10103 10087 10066 10046 10035
3689.1572 10035 10045 10061 10079 10096 10108 10115 10117 10118 10119 10121
3694.4604 10124 10128 10131 10133 10134 10135 10136 10136 10137 10135 10132
3699.7639 10128 10122 10118 10117 10119 10123 10126 10126 10125 10121 10117
3705.0671 10113 10110 10108 10108 10108 10108 10106 10102 10099 10096 10095
3710.3704 10095 10095 10096 10098 10101 10104 10107 10110 10116 10124 10135
3715.6736 10146 10155 10159 10157 10150 10143 10138 10138 10140 10139 10133
3720.9771 10121 10107 10097 10095 10099 10104 10105 10100 10091 10082 10080
3726.2803 10085 10095 10107 10115 10121 10126 10130 10134 10137 10135 10125
3731.5835 10106 10085 10068 10055 10045 10033 10017 10005 10007 10026 10053
3736.8867 10080 10100 10113 10120 10122 10122 10119 10114 10111 10109 10111
3742.1902 10116 10123 10131 10137 10136 10129 10123 10122 10122 10123 10123
3747.4934 10121 10116 10108 10099 10090 10081 10073 10065 10062 10067 10081
3752.7966 10096 10107 10112 10114 10116 10120 10128 10140 10150 10154 10150
3758.0999 10138 10123 10111 10111 10123 10140 10153 10161 10164 10163 10160
3763.4033 10157 10152 10147 10141 10138 10138 10142 10145 10146 10143 10137
3768.7065 10129 10124 10126 10134 10145 10155 10163 10168 10171 10171 10168
3774.0098 10165 10162 10161 10163 10167 10170 10169 10164 10155 10143 10134
3779.3130 10130 10132 10138 10146 10153 10159 10163 10165 10165 10161 10158
3784.6165 10156 10157 10159 10160 10159 10157 10154 10153 10155 10159 10165
3789.9197 10170 10172 10171 10169 10165 10161 10159 10158 10157 10155 10150
3795.2229 10142 10129 10116 10110 10113 10122 10134 10142 10144 10137 10119
3800.5261 10095 10079 10086 10110 10136 10153 10161 10163 10160 10152 10141
3805.8296 10126 10113 10109 10114 10125 10137 10146 10152 10155 10157 10157
3811.1328 10157 10158 10160 10163 10165 10166 10164 10156 10141 10123 10112
3816.4360 10112 10120 10129 10135 10136 10133 10125 10113 10102 10099 10105
3821.7393 10115 10126 10135 10144 10151 10156 10159 10159 10156 10152 10148
3827.0427 10146 10145 10144 10142 10138 10135 10132 10130 10132 10138 10144
3832.3459 10150 10155 10159 10161 10164 10164 10160 10150 10136 10118 10104
3837.6492 10099 10107 10120 10132 10140 10143 10145 10146 10147 10146 10143
3842.9524 10140 10139 10145 10155 10168 10178 10185 10187 10184 10178 10171
3848.2559 10165 10161 10159 10160 10160 10157 10147 10128 10099 10063 10038
3853.5591 10040 10061 10084 10101 10113 10121 10127 10132 10139 10146 10153
3858.8623 10158 10159 10156 10146 10133 10121 10116 10117 10122 10125 10124
3864.1655 10118 10111 10112 10122 10135 10146 10153 10153 10143 10121 10092
3869.4690 10072 10076 10097 10120 10134 10139 10136 10127 10119 10119 10130
3874.7722 10147 10160 10167 10169 10167 10164 10161 10158 10152 10140 10122
3880.0754 10106 10098 10103 10114 10126 10136 10141 10142 10138 10133 10127
3885.3787 10126 10131 10141 10151 10159 10163 10164 10160 10151 10139 10125
3890.6821 10114 10108 10111 10119 10128 10137 10143 10150 10156 10163 10168
3895.9854 10172 10171 10166 10154 10139 10124 10114 10112 10115 10117 10115
3901.2886 10111 10107 10108 10113 10119 10122 10120 10116 10114 10119 10129
3906.5918 10141 10152 10161 10165 10167 10167 10164 10161 10158 10158 10160
3911.8953 10166 10174 10182 10187 10187 10182 10173 10160 10146 10136 10131
3917.1985 10133 10140 10148 10153 10156 10155 10154 10154 10155 10156 10155
3922.5017 10152 10147 10143 10140 10141 10144 10148 10151 10152 10153 10155
3927.8049 10157 10159 10161 10162 10162 10160 10155 10148 10140 10133 10128
3933.1084 10127 10130 10134 10140 10145 10150 10153 10154 10154 10152 10151
3938.4116 10152 10156 10163 10170 10176 10179 10179 10175 10169 10163 10159
3943.7148 10157 10158 10161 10164 10167 10168 10166 10160 10151 10140 10133
3949.0181 10130 10134 10142 10151 10158 10162 10164 10165 10166 10167 10168
3954.3215 10169 10168 10166 10164 10163 10162 10160 10158 10156 10153 10150
3959.6248 10148 10145 10143 10143 10146 10153 10161 10169 10175 10177 10176
3964.9280 10173 10169 10164 10159 10155 10151 10150 10151 10154 10157 10158
3970.2312 10156 10153 10148 10144 10143 10145 10149 10153 10156 10157 10156
3975.5347 10154 10152 10150 10149 10149 10148 10147 10147 10148 10149 10150
3980.8379 10150 10151 10151 10154 10159 10164 10169 10173 10174 10174 10172
3986.1411 10169 10165 10160 10156 10154 10153 10154 10158 10162 10166 10168
3991.4443 10169 10167 10164 10159 10154 10151 10151 10152 10155 10158 10160
3996.7478 10162 10164 10164 10163 10160 10157 10155 10153
##END= 
