##TITLE= INCSULFAMERAZINA
##JCAMP-DX= 4.24
##DATA TYPE= INFRARED SPECTRUM
##ORIGIN= JASCO
##OWNER= 
##DATE= 22/04/13
##TIME= 18:10:47
##SPECTROMETER/DATA SYSTEM= 
##RESOLUTION= 
##DELTAX=   0.48211674
##XUNITS= 1/CM
##YUNITS= TRANSMITTANCE
##XFACTOR= 1.00000
##YFACTOR= 0.0001
##FIRSTX=   599.7532
##LASTX=  4000.1226
##NPOINTS=     7054
##FIRSTY=      1.04211
##MAXY=      1.13369
##MINY=      0.54794
##XYDATA= (X++(Y..Y))
599.7532 10421 10426 10419 10401 10373 10341 10315 10303 10309 10332 10361
605.0565 10377 10366 10327 10268 10211 10174 10163 10173 10187 10186 10161
610.3598 10116 10060 10007 9969 9948 9938 9924 9889 9818 9715 9597 9493 9433
616.6273 9435 9496 9596 9703 9796 9868 9923 9968 10007 10037 10055 10054 10033
622.8948 9996 9951 9913 9895 9905 9938 9979 10007 10010 9985 9945 9904 9875
629.1624 9860 9854 9847 9827 9785 9714 9614 9494 9373 9279 9241 9278 9389 9549
635.9120 9719 9862 9956 10000 10007 9994 9977 9959 9939 9912 9876 9834 9793
642.1795 9759 9733 9713 9696 9678 9658 9635 9610 9579 9541 9495 9446 9400 9360
648.9291 9327 9293 9250 9194 9126 9055 8994 8949 8918 8892 8856 8797 8715 8616
655.6788 8514 8422 8342 8272 8198 8109 7995 7856 7702 7550 7422 7339 7315 7351
662.4284 7439 7561 7702 7848 7994 8133 8263 8383 8490 8580 8632 8594 8441 8295
669.1780 8254 8274 8310 8341 8356 8343 8294 8203 8071 7904 7717 7526 7344 7178
675.9277 7025 6880 6736 6599 6479 6393 6353 6369 6444 6578 6762 6980 7208 7419
682.6773 7596 7738 7863 7993 8145 8316 8495 8669 8826 8963 9072 9147 9181 9182
689.4269 9167 9159 9171 9209 9266 9335 9406 9471 9518 9537 9529 9503 9475 9457
696.1766 9448 9437 9408 9356 9289 9226 9192 9201 9258 9350 9447 9511 9512 9440
702.9262 9319 9188 9089 9042 9042 9062 9071 9057 9029 9010 9020 9059 9105 9130
709.6758 9112 9048 8954 8854 8767 8705 8671 8658 8658 8659 8649 8622 8580 8536
716.4255 8513 8530 8593 8688 8786 8861 8893 8886 8857 8830 8818 8820 8826 8827
723.1751 8821 8808 8795 8785 8777 8770 8759 8741 8717 8688 8657 8630 8611 8602
729.9247 8602 8606 8609 8603 8586 8560 8529 8501 8482 8474 8475 8480 8485 8487
736.6744 8488 8490 8496 8508 8525 8549 8575 8600 8619 8631 8638 8651 8678 8729
743.4240 8804 8899 9002 9100 9186 9255 9309 9353 9393 9436 9490 9553 9622 9692
750.1736 9755 9809 9851 9878 9889 9886 9877 9875 9890 9925 9974 10023 10066
756.4412 10100 10133 10169 10208 10241 10260 10268 10275 10296 10341 10407
761.7444 10480 10543 10587 10611 10624 10632 10631 10614 10569 10493 10390
767.0477 10272 10148 10025 9902 9782 9666 9555 9450 9352 9257 9162 9066 8971
773.3152 8880 8799 8728 8668 8613 8560 8507 8452 8398 8349 8308 8275 8249 8229
780.0649 8209 8187 8160 8129 8095 8062 8033 8007 7983 7955 7922 7882 7837 7792
786.8145 7750 7713 7682 7654 7625 7593 7554 7507 7452 7394 7337 7285 7241 7205
793.5641 7173 7146 7125 7110 7104 7104 7107 7111 7112 7111 7108 7104 7098 7094
800.3138 7093 7097 7106 7119 7129 7133 7129 7117 7103 7090 7082 7081 7086 7096
807.0634 7111 7126 7139 7146 7143 7134 7123 7116 7121 7137 7162 7188 7207 7214
813.8130 7208 7197 7189 7191 7206 7231 7257 7276 7285 7284 7277 7270 7268 7273
820.5627 7282 7294 7307 7320 7335 7354 7378 7408 7443 7481 7514 7537 7543 7529
827.3123 7496 7450 7395 7332 7262 7183 7094 6995 6887 6773 6660 6555 6467 6405
834.0620 6374 6374 6403 6458 6539 6646 6782 6947 7136 7344 7560 7776 7984 8176
840.8116 8346 8493 8613 8708 8784 8844 8892 8932 8964 8987 9001 9006 9003 8994
847.5612 8983 8972 8961 8949 8936 8920 8901 8882 8866 8855 8849 8843 8834 8820
854.3109 8801 8781 8763 8749 8735 8721 8703 8682 8660 8641 8627 8618 8612 8605
861.0605 8596 8582 8563 8539 8512 8485 8457 8428 8399 8367 8332 8293 8252 8208
867.8101 8163 8119 8077 8036 7996 7955 7911 7863 7811 7757 7700 7644 7589 7540
874.5598 7496 7458 7422 7385 7343 7294 7241 7189 7145 7114 7099 7095 7100 7106
881.3094 7110 7110 7104 7094 7081 7063 7040 7013 6981 6947 6912 6878 6847 6822
888.0590 6807 6806 6820 6847 6886 6933 6985 7041 7102 7168 7237 7312 7392 7478
894.8087 7568 7659 7751 7842 7931 8020 8109 8198 8284 8365 8442 8513 8580 8642
901.5583 8699 8750 8796 8838 8879 8919 8959 8998 9036 9074 9110 9145 9175 9198
908.3079 9214 9226 9237 9250 9267 9287 9305 9321 9335 9346 9355 9363 9372 9382
915.0576 9397 9415 9435 9454 9468 9476 9480 9483 9490 9501 9515 9528 9538 9543
921.8072 9544 9543 9541 9541 9540 9540 9541 9541 9543 9546 9549 9552 9553 9553
928.5568 9552 9550 9549 9546 9542 9537 9531 9525 9521 9519 9518 9518 9517 9515
935.3065 9513 9511 9510 9509 9505 9499 9489 9476 9461 9445 9430 9416 9402 9386
942.0561 9367 9346 9325 9305 9289 9275 9261 9245 9228 9211 9197 9190 9188 9188
948.8057 9185 9175 9156 9129 9097 9061 9024 8986 8947 8905 8857 8803 8739 8666
955.5554 8585 8500 8415 8335 8265 8209 8169 8143 8128 8119 8109 8092 8067 8033
962.3050 7994 7956 7923 7904 7901 7918 7954 8006 8070 8143 8223 8309 8401 8498
969.0546 8597 8694 8783 8865 8937 9001 9060 9115 9167 9216 9265 9313 9359 9403
975.8043 9442 9476 9505 9530 9555 9580 9606 9633 9657 9678 9697 9714 9732 9751
982.5539 9771 9788 9803 9812 9819 9824 9830 9837 9845 9851 9855 9856 9854 9851
989.3035 9848 9846 9846 9847 9848 9848 9847 9843 9837 9829 9817 9800 9775 9741
996.0532 9700 9654 9606 9561 9518 9478 9441 9409 9387 9378 9385 9409 9446 9490
1002.8028 9533 9566 9585 9587 9571 9545 9514 9485 9465 9460 9472 9502 9549
1009.0703 9606 9668 9730 9788 9838 9880 9912 9933 9945 9946 9941 9931 9921
1015.3378 9912 9907 9903 9899 9894 9887 9876 9863 9848 9832 9814 9795 9775
1021.6053 9753 9730 9708 9686 9665 9644 9624 9603 9581 9558 9533 9508 9482
1027.8729 9454 9426 9397 9368 9339 9314 9291 9272 9254 9237 9219 9199 9179
1034.1404 9157 9135 9110 9082 9052 9020 8986 8953 8919 8884 8846 8804 8756
1040.4080 8704 8648 8593 8540 8490 8446 8404 8365 8329 8297 8273 8259 8259
1046.6754 8275 8307 8354 8413 8480 8552 8622 8686 8741 8785 8817 8839 8851
1052.9430 8854 8850 8838 8820 8797 8767 8732 8692 8648 8604 8562 8525 8495
1059.2104 8472 8456 8449 8452 8468 8496 8533 8575 8619 8661 8700 8734 8764
1065.4780 8788 8805 8815 8818 8814 8805 8791 8772 8747 8717 8684 8649 8613
1071.7455 8579 8547 8517 8489 8461 8430 8392 8346 8293 8236 8175 8112 8046
1078.0131 7976 7900 7821 7739 7658 7578 7500 7421 7339 7253 7162 7070 6978
1084.2805 6890 6807 6730 6658 6590 6526 6466 6411 6362 6319 6284 6259 6247
1090.5481 6252 6280 6337 6428 6558 6725 6927 7155 7400 7652 7901 8137 8353
1096.8156 8541 8698 8825 8924 8997 9048 9080 9092 9088 9070 9041 9001 8953
1103.0831 8895 8826 8742 8638 8508 8350 8173 8001 7869 7812 7856 8001 8220
1109.3506 8469 8704 8891 9017 9084 9107 9101 9079 9049 9015 8980 8945 8909
1115.6182 8872 8834 8795 8758 8723 8691 8661 8631 8597 8558 8516 8471 8428
1121.8856 8389 8354 8322 8291 8257 8221 8181 8141 8100 8060 8021 7981 7939
1128.1532 7894 7848 7801 7754 7709 7663 7618 7571 7523 7471 7416 7359 7298
1134.4207 7237 7175 7115 7058 7006 6958 6914 6875 6838 6805 6773 6739 6700
1140.6882 6653 6597 6532 6459 6381 6299 6216 6133 6048 5964 5881 5801 5725
1146.9557 5657 5599 5551 5515 5490 5479 5485 5509 5554 5619 5702 5796 5896
1153.2233 5996 6093 6187 6281 6376 6474 6575 6679 6784 6889 6994 7100 7209
1159.4907 7322 7442 7571 7709 7857 8014 8178 8347 8521 8699 8880 9066 9256
1165.7583 9446 9634 9818 9996 10166 10326 10475 10611 10733 10841 10936 11018
1171.5437 11089 11150 11200 11240 11271 11294 11311 11323 11331 11336 11337
1176.8469 11335 11329 11321 11309 11296 11281 11264 11244 11222 11196 11164
1182.1503 11129 11088 11044 10996 10943 10883 10811 10722 10609 10465 10283
1187.4535 10066 9821 9570 9341 9167 9074 9080 9186 9376 9623 9894 10157 10389
1193.7211 10578 10719 10818 10882 10920 10938 10942 10936 10923 10906 10888
1199.0243 10868 10849 10828 10808 10787 10768 10752 10739 10730 10725 10722
1204.3276 10723 10726 10732 10742 10753 10766 10779 10790 10800 10809 10818
1209.6309 10826 10834 10841 10844 10846 10845 10844 10841 10839 10837 10834
1214.9342 10831 10826 10820 10810 10799 10786 10772 10760 10748 10738 10727
1220.2374 10716 10704 10689 10672 10655 10639 10623 10608 10593 10578 10561
1225.5408 10545 10526 10507 10487 10467 10446 10426 10406 10387 10367 10347
1230.8440 10327 10305 10283 10259 10235 10212 10188 10166 10145 10125 10105
1236.1473 10086 10067 10047 10025 10002 9976 9949 9919 9887 9850 9809 9761
1241.9327 9706 9643 9571 9492 9410 9330 9261 9210 9185 9191 9229 9297 9389
1248.2002 9498 9612 9724 9824 9909 9978 10031 10072 10103 10129 10151 10170
1253.9856 10186 10200 10210 10220 10229 10239 10252 10266 10279 10287 10290
1259.2889 10287 10280 10269 10253 10233 10207 10173 10134 10090 10044 9999
1264.5922 9961 9936 9931 9945 9970 9988 9981 9941 9873 9798 9738 9708 9712
1270.8597 9744 9792 9844 9891 9928 9956 9974 9983 9985 9977 9962 9939 9910
1277.1272 9875 9837 9797 9756 9716 9675 9632 9588 9542 9495 9450 9407 9368
1283.3948 9331 9295 9261 9227 9195 9164 9137 9112 9088 9065 9041 9016 8990
1289.6622 8962 8934 8903 8869 8833 8793 8749 8703 8654 8602 8548 8489 8426
1295.9298 8356 8280 8200 8119 8040 7967 7905 7854 7817 7792 7778 7769 7760
1302.1973 7749 7743 7753 7797 7890 8040 8241 8471 8700 8900 9049 9140 9176
1308.4648 9169 9133 9077 9011 8939 8863 8783 8701 8615 8525 8431 8335 8236
1314.7323 8137 8037 7936 7836 7738 7642 7550 7460 7372 7287 7204 7122 7040
1320.9999 6957 6872 6787 6706 6633 6572 6526 6497 6487 6495 6522 6567 6629
1327.2673 6705 6792 6888 6989 7092 7193 7291 7383 7474 7565 7660 7762 7867
1333.5349 7973 8073 8164 8242 8307 8358 8395 8420 8433 8438 8437 8436 8436
1339.8024 8439 8445 8456 8470 8490 8518 8555 8603 8663 8733 8813 8900 8992
1346.0699 9086 9180 9272 9360 9444 9523 9594 9658 9710 9752 9782 9802 9814
1352.3374 9818 9815 9807 9794 9775 9754 9729 9703 9675 9646 9614 9580 9547
1358.6050 9515 9484 9454 9423 9391 9357 9322 9286 9247 9207 9167 9126 9085
1364.8724 9041 8991 8935 8874 8807 8737 8663 8586 8510 8439 8382 8346 8335
1371.1400 8352 8395 8465 8559 8676 8807 8941 9062 9158 9226 9273 9303 9321
1377.4075 9330 9328 9319 9303 9283 9260 9234 9205 9174 9142 9107 9072 9034
1383.6750 8996 8957 8919 8880 8840 8797 8749 8695 8641 8592 8549 8510 8471
1389.9425 8428 8382 8333 8283 8236 8190 8143 8093 8036 7971 7903 7835 7772
1396.2101 7713 7656 7598 7533 7460 7377 7290 7208 7134 7066 7000 6936 6872
1402.4775 6812 6759 6715 6682 6663 6660 6674 6700 6735 6779 6833 6897 6970
1408.7451 7050 7135 7221 7308 7395 7482 7568 7653 7736 7820 7904 7989 8074
1415.0126 8160 8247 8333 8415 8488 8552 8609 8666 8726 8785 8832 8864 8885
1421.2802 8900 8912 8921 8928 8932 8932 8928 8921 8911 8899 8884 8866 8848
1427.5476 8829 8809 8789 8765 8739 8712 8687 8666 8648 8633 8620 8609 8600
1433.8152 8593 8587 8581 8574 8565 8555 8548 8543 8537 8529 8517 8501 8482
1440.0826 8460 8438 8415 8391 8365 8339 8315 8294 8279 8273 8274 8280 8291
1446.3502 8306 8325 8353 8390 8433 8476 8515 8551 8587 8625 8668 8714 8762
1452.6177 8808 8850 8886 8917 8942 8963 8980 8996 9013 9033 9049 9060 9065
1458.8853 9068 9068 9068 9066 9060 9052 9042 9030 9016 9001 8981 8955 8922
1465.1527 8887 8857 8834 8814 8795 8772 8746 8718 8689 8658 8627 8595 8560
1471.4203 8520 8471 8413 8356 8309 8273 8241 8209 8170 8122 8067 8010 7958
1477.6877 7910 7863 7815 7764 7710 7653 7594 7532 7470 7409 7350 7293 7237
1483.9553 7184 7133 7085 7039 6995 6952 6910 6873 6842 6817 6797 6783 6778
1490.2228 6783 6796 6812 6830 6851 6877 6906 6936 6967 7001 7046 7113 7200
1496.4904 7292 7371 7436 7497 7562 7630 7689 7733 7758 7769 7766 7749 7720
1502.7578 7680 7635 7589 7543 7501 7477 7514 7694 8031 8368 8596 8742 8849
1509.0254 8934 9004 9059 9102 9135 9163 9187 9208 9224 9236 9243 9247 9247
1515.2928 9244 9239 9231 9224 9219 9218 9219 9220 9220 9217 9210 9195 9172
1521.5604 9151 9140 9139 9141 9143 9144 9143 9141 9136 9131 9126 9121 9118
1527.8279 9116 9116 9116 9115 9111 9104 9094 9081 9067 9053 9037 9021 9005
1534.0955 8991 8977 8962 8945 8926 8905 8883 8861 8835 8801 8752 8690 8638
1540.3629 8608 8585 8559 8525 8486 8449 8414 8381 8345 8307 8267 8231 8198
1546.6305 8167 8136 8103 8066 8026 7983 7937 7889 7840 7792 7745 7700 7653
1552.8979 7599 7533 7452 7365 7287 7225 7172 7120 7062 6990 6895 6775 6651
1559.1655 6568 6512 6456 6401 6350 6305 6263 6227 6198 6182 6190 6229 6298
1565.4330 6384 6470 6546 6608 6657 6694 6720 6744 6777 6830 6902 6988 7091
1571.7006 7215 7364 7530 7695 7842 7963 8066 8168 8292 8438 8567 8647 8688
1577.9680 8709 8724 8734 8739 8734 8719 8693 8659 8616 8566 8509 8447 8379
1584.2356 8308 8233 8155 8074 7991 7906 7818 7728 7636 7542 7447 7352 7255
1590.5032 7157 7058 6960 6867 6781 6706 6645 6604 6586 6596 6635 6704 6803
1596.7706 6931 7086 7266 7466 7682 7911 8149 8391 8629 8857 9067 9257 9425
1603.0382 9570 9693 9795 9879 9949 10008 10061 10107 10146 10177 10201 10218
1608.8236 10228 10233 10235 10234 10230 10224 10216 10206 10195 10184 10174
1614.1268 10164 10154 10140 10114 10069 10004 9940 9891 9854 9818 9771 9710
1619.9122 9634 9549 9462 9373 9278 9159 9004 8817 8633 8485 8373 8287 8214
1626.1798 8151 8105 8087 8108 8168 8253 8350 8453 8562 8677 8794 8905 8999
1632.4473 9073 9128 9168 9197 9216 9220 9200 9159 9105 9046 8981 8908 8832
1638.7148 8757 8691 8638 8602 8588 8600 8642 8711 8799 8894 8987 9076 9163
1644.9823 9253 9352 9459 9563 9649 9714 9765 9809 9848 9882 9910 9933 9954
1651.2499 9974 9994 10012 10024 10022 10018 10022 10030 10040 10050 10061
1656.5531 10072 10083 10093 10102 10108 10114 10119 10125 10130 10136 10140
1661.8564 10143 10147 10154 10163 10175 10186 10197 10207 10216 10223 10228
1667.1597 10233 10237 10242 10249 10260 10273 10284 10292 10298 10306 10315
1672.4630 10326 10338 10349 10359 10367 10371 10374 10379 10388 10399 10411
1677.7662 10424 10436 10447 10459 10472 10485 10500 10513 10524 10533 10539
1683.0696 10540 10533 10523 10525 10540 10558 10574 10588 10600 10609 10616
1688.3728 10621 10625 10629 10635 10642 10648 10654 10659 10663 10668 10673
1693.6761 10678 10680 10678 10667 10649 10638 10639 10650 10662 10672 10679
1698.9794 10678 10661 10619 10579 10569 10578 10590 10599 10603 10602 10596
1704.2827 10587 10576 10565 10557 10550 10546 10544 10543 10540 10535 10528
1709.5859 10521 10513 10507 10503 10499 10495 10489 10482 10472 10461 10450
1714.8893 10441 10434 10428 10421 10409 10391 10372 10360 10356 10357 10359
1720.1925 10359 10357 10353 10348 10340 10330 10319 10306 10295 10287 10280
1725.4958 10274 10268 10259 10248 10236 10224 10210 10196 10182 10168 10156
1730.7991 10147 10139 10132 10122 10109 10090 10065 10044 10033 10030 10027
1736.1024 10024 10020 10015 10008 9998 9985 9966 9945 9926 9914 9908 9905 9902
1742.3699 9897 9890 9880 9871 9862 9854 9846 9838 9831 9823 9815 9807 9798
1748.6375 9790 9780 9770 9759 9749 9740 9734 9731 9729 9727 9724 9720 9714
1754.9049 9708 9701 9694 9688 9684 9683 9682 9682 9679 9676 9671 9665 9661
1761.1725 9657 9655 9654 9653 9650 9647 9643 9638 9633 9629 9625 9621 9617
1767.4399 9614 9610 9606 9601 9596 9590 9584 9576 9570 9568 9570 9575 9578
1773.7075 9578 9577 9574 9571 9569 9568 9567 9566 9565 9565 9565 9567 9570
1779.9750 9574 9579 9583 9585 9586 9585 9583 9581 9581 9584 9589 9593 9596
1786.2426 9597 9596 9594 9591 9588 9584 9580 9576 9572 9568 9566 9567 9572
1792.5100 9580 9587 9591 9591 9588 9585 9583 9584 9587 9591 9593 9592 9588
1798.7776 9582 9576 9573 9573 9574 9576 9578 9579 9580 9580 9581 9581 9581
1805.0450 9580 9577 9574 9570 9566 9563 9560 9559 9558 9558 9559 9560 9562
1811.3126 9564 9567 9569 9570 9570 9568 9565 9562 9561 9560 9560 9560 9558
1817.5801 9556 9554 9554 9556 9561 9564 9566 9563 9556 9547 9538 9531 9529
1823.8477 9531 9538 9549 9558 9563 9562 9556 9547 9537 9528 9522 9521 9525
1830.1151 9530 9535 9537 9537 9536 9537 9539 9543 9547 9549 9549 9546 9542
1836.3827 9539 9538 9540 9543 9544 9544 9542 9540 9537 9534 9531 9528 9524
1842.6501 9521 9520 9523 9529 9536 9540 9542 9541 9539 9536 9534 9532 9529
1848.9177 9526 9524 9524 9528 9534 9543 9550 9555 9556 9553 9548 9543 9540
1855.1852 9539 9539 9539 9538 9536 9533 9532 9532 9537 9545 9553 9558 9557
1861.4528 9550 9538 9525 9515 9509 9508 9509 9511 9513 9515 9516 9518 9519
1867.7202 9521 9523 9526 9532 9537 9540 9537 9531 9522 9514 9510 9509 9512
1873.9878 9516 9516 9513 9506 9497 9489 9484 9483 9486 9493 9502 9512 9519
1880.2552 9523 9521 9515 9506 9497 9489 9485 9485 9487 9493 9501 9508 9513
1886.5228 9515 9513 9508 9503 9501 9506 9516 9526 9533 9533 9526 9517 9508
1892.7903 9501 9499 9500 9502 9503 9501 9497 9490 9482 9474 9469 9466 9466
1899.0579 9468 9469 9469 9469 9470 9472 9474 9472 9465 9453 9443 9439 9445
1905.3253 9458 9474 9488 9496 9501 9506 9512 9519 9524 9525 9522 9521 9524
1911.5929 9533 9544 9553 9556 9553 9544 9534 9524 9517 9513 9512 9513 9515
1917.8604 9516 9515 9514 9511 9509 9508 9509 9512 9516 9521 9523 9523 9521
1924.1279 9520 9523 9529 9539 9551 9562 9571 9576 9575 9569 9558 9544 9532
1930.3954 9525 9526 9532 9539 9543 9539 9529 9519 9515 9521 9536 9557 9577
1936.6630 9592 9599 9598 9591 9580 9571 9564 9562 9564 9567 9567 9559 9541
1942.9304 9514 9484 9457 9439 9431 9435 9448 9465 9480 9488 9487 9481 9474
1949.1980 9468 9468 9475 9485 9497 9506 9511 9511 9506 9498 9485 9470 9455
1955.4655 9448 9453 9472 9501 9526 9540 9540 9531 9522 9520 9519 9511 9489
1961.7330 9457 9426 9410 9415 9434 9457 9475 9484 9485 9483 9482 9481 9483
1968.0005 9487 9493 9497 9493 9477 9449 9417 9389 9377 9382 9401 9429 9457
1974.2681 9480 9496 9506 9512 9515 9517 9519 9520 9523 9527 9531 9527 9507
1980.5355 9467 9409 9348 9303 9291 9314 9363 9416 9452 9458 9440 9410 9382
1986.8031 9366 9364 9375 9396 9427 9466 9510 9553 9584 9596 9583 9546 9494
1993.0706 9438 9390 9356 9344 9355 9388 9432 9472 9495 9494 9472 9442 9416
1999.3381 9400 9396 9397 9400 9405 9416 9433 9455 9476 9491 9500 9510 9527
2005.6056 9553 9582 9604 9607 9587 9548 9499 9453 9422 9410 9418 9440 9468
2011.8732 9491 9502 9501 9491 9483 9484 9496 9515 9529 9529 9509 9473 9435
2018.1406 9409 9404 9422 9455 9492 9525 9547 9559 9561 9557 9548 9536 9523
2024.4082 9508 9494 9481 9473 9475 9492 9523 9560 9589 9593 9565 9508 9437
2030.6757 9376 9345 9357 9407 9480 9553 9606 9628 9624 9606 9590 9581 9578
2036.9432 9574 9563 9547 9530 9517 9509 9501 9487 9467 9445 9433 9436 9453
2043.2107 9477 9494 9497 9483 9459 9436 9423 9425 9438 9454 9466 9468 9463
2049.4783 9457 9458 9468 9484 9500 9511 9516 9521 9528 9537 9543 9537 9517
2055.7458 9486 9453 9431 9425 9434 9451 9467 9476 9476 9467 9456 9445 9439
2062.0132 9440 9447 9456 9464 9467 9466 9462 9458 9455 9453 9454 9455 9456
2068.2808 9457 9455 9452 9449 9447 9449 9454 9462 9468 9472 9472 9469 9463
2074.5483 9456 9447 9436 9426 9418 9415 9418 9426 9435 9443 9448 9451 9454
2080.8159 9461 9471 9484 9496 9500 9497 9485 9471 9458 9452 9451 9455 9461
2087.0833 9467 9471 9472 9469 9461 9448 9433 9421 9414 9414 9418 9424 9428
2093.3508 9431 9435 9440 9448 9456 9463 9468 9471 9471 9470 9467 9462 9456
2099.6184 9450 9446 9444 9442 9439 9436 9434 9434 9437 9443 9450 9456 9460
2105.8860 9460 9456 9451 9448 9450 9458 9469 9481 9489 9490 9485 9477 9469
2112.1533 9462 9456 9452 9451 9452 9456 9463 9468 9470 9467 9463 9460 9463
2118.4209 9469 9476 9477 9472 9460 9448 9439 9435 9435 9434 9433 9430 9431
2124.6885 9437 9450 9465 9478 9484 9481 9470 9454 9436 9420 9411 9408 9412
2130.9561 9419 9427 9434 9441 9449 9459 9470 9480 9488 9492 9492 9488 9479
2137.2234 9465 9448 9433 9427 9432 9448 9472 9498 9521 9538 9545 9540 9524
2143.4910 9500 9473 9451 9436 9425 9413 9399 9382 9370 9367 9376 9395 9418
2149.7585 9442 9464 9485 9506 9525 9537 9537 9516 9477 9426 9381 9360 9377
2156.0261 9431 9507 9580 9632 9656 9658 9653 9645 9629 9599 9553 9504 9467
2162.2935 9453 9464 9489 9512 9517 9500 9465 9426 9398 9392 9408 9440 9473
2168.5610 9499 9512 9515 9515 9518 9529 9547 9569 9587 9592 9578 9545 9507
2174.8286 9480 9480 9511 9560 9603 9622 9612 9583 9553 9532 9520 9510 9495
2181.0962 9479 9469 9473 9489 9510 9521 9519 9506 9492 9485 9488 9498 9509
2187.3635 9520 9530 9542 9554 9558 9547 9518 9475 9429 9394 9377 9377 9388
2193.6311 9400 9408 9414 9424 9442 9468 9496 9516 9521 9512 9493 9472 9455
2199.8987 9446 9443 9442 9439 9432 9419 9403 9390 9383 9383 9386 9389 9387
2206.1663 9381 9373 9368 9367 9369 9372 9375 9379 9388 9405 9432 9463 9492
2212.4336 9508 9505 9483 9448 9410 9380 9364 9363 9370 9381 9390 9400 9412
2218.7012 9427 9441 9447 9440 9419 9387 9354 9330 9318 9321 9334 9353 9374
2224.9688 9393 9407 9414 9413 9404 9390 9376 9368 9368 9378 9395 9417 9436
2231.2363 9451 9460 9463 9462 9460 9456 9451 9444 9435 9424 9412 9399 9387
2237.5037 9378 9372 9371 9376 9390 9412 9439 9465 9480 9482 9469 9450 9432
2243.7712 9421 9415 9412 9404 9390 9374 9361 9359 9369 9389 9412 9433 9447
2250.0388 9454 9457 9456 9453 9448 9441 9432 9421 9411 9402 9395 9392 9393
2256.3064 9399 9408 9417 9423 9425 9423 9419 9416 9417 9422 9429 9435 9439
2262.5737 9441 9441 9442 9445 9448 9450 9447 9439 9426 9413 9404 9402 9405
2268.8413 9412 9418 9421 9420 9417 9416 9417 9420 9425 9431 9435 9435 9433
2275.1089 9426 9419 9413 9410 9411 9415 9418 9418 9414 9407 9401 9399 9399
2281.3765 9402 9404 9406 9406 9407 9408 9408 9407 9404 9403 9404 9409 9415
2287.6438 9420 9421 9419 9417 9418 9423 9428 9430 9426 9418 9409 9403 9402
2293.9114 9406 9410 9414 9415 9414 9411 9408 9405 9400 9396 9392 9389 9387
2300.1790 9385 9383 9381 9380 9381 9385 9389 9394 9396 9396 9390 9381 9370
2306.4465 9360 9353 9351 9351 9353 9355 9356 9356 9357 9361 9367 9374 9382
2312.7139 9387 9389 9389 9388 9386 9384 9382 9380 9378 9375 9372 9369 9366
2318.9814 9362 9359 9358 9359 9362 9363 9361 9354 9345 9335 9328 9325 9325
2325.2490 9326 9326 9326 9328 9332 9340 9350 9356 9357 9351 9339 9325 9313
2331.5166 9302 9294 9288 9285 9288 9295 9304 9313 9317 9317 9311 9305 9301
2337.7839 9299 9298 9297 9296 9294 9292 9289 9286 9283 9282 9284 9288 9293
2344.0515 9296 9296 9294 9292 9292 9294 9299 9303 9306 9308 9310 9313 9315
2350.3191 9316 9313 9303 9289 9271 9255 9244 9237 9230 9219 9203 9184 9169
2356.5867 9164 9172 9188 9206 9219 9221 9213 9195 9174 9155 9143 9145 9159
2362.8540 9184 9212 9237 9253 9256 9247 9231 9214 9202 9199 9206 9218 9233
2369.1216 9247 9259 9268 9275 9279 9280 9278 9275 9274 9277 9284 9292 9299
2375.3892 9302 9302 9301 9300 9301 9304 9308 9311 9315 9319 9323 9327 9331
2381.6567 9334 9335 9334 9332 9329 9326 9323 9322 9323 9325 9328 9331 9334
2387.9241 9333 9330 9325 9320 9315 9314 9316 9320 9325 9328 9328 9326 9323
2394.1917 9322 9322 9323 9324 9323 9320 9318 9317 9318 9322 9325 9328 9328
2400.4592 9326 9322 9318 9315 9312 9309 9307 9307 9309 9313 9319 9324 9328
2406.7268 9331 9331 9332 9333 9334 9336 9337 9338 9338 9336 9333 9329 9325
2412.9941 9322 9322 9325 9332 9339 9344 9347 9345 9342 9338 9335 9333 9333
2419.2617 9334 9335 9335 9335 9334 9332 9329 9326 9323 9321 9320 9320 9321
2425.5293 9323 9325 9327 9328 9329 9330 9330 9329 9327 9324 9321 9318 9317
2431.7969 9318 9321 9324 9326 9328 9327 9325 9322 9320 9318 9317 9319 9321
2438.0642 9324 9326 9327 9328 9328 9327 9325 9319 9312 9304 9298 9294 9295
2444.3318 9299 9305 9312 9318 9322 9324 9324 9323 9321 9318 9315 9312 9309
2450.5994 9306 9304 9303 9304 9304 9304 9302 9300 9299 9299 9302 9305 9308
2456.8669 9309 9308 9304 9302 9302 9307 9313 9320 9325 9326 9323 9317 9309
2463.1343 9302 9297 9296 9299 9305 9313 9320 9325 9325 9322 9316 9309 9303
2469.4019 9298 9297 9298 9302 9306 9311 9315 9318 9319 9317 9314 9307 9300
2475.6694 9291 9282 9275 9269 9265 9263 9263 9266 9271 9277 9284 9290 9293
2481.9370 9292 9288 9282 9277 9273 9270 9270 9271 9274 9278 9282 9286 9287
2488.2043 9285 9282 9280 9278 9276 9275 9273 9271 9271 9274 9279 9284 9288
2494.4719 9288 9287 9283 9280 9277 9277 9279 9283 9289 9295 9297 9294 9285
2500.7395 9275 9265 9261 9263 9270 9278 9285 9288 9288 9287 9286 9286 9285
2507.0071 9281 9275 9267 9259 9255 9254 9256 9259 9262 9265 9268 9273 9278
2513.2744 9282 9285 9285 9284 9283 9281 9278 9275 9270 9266 9264 9265 9270
2519.5420 9278 9285 9291 9295 9297 9297 9297 9295 9290 9284 9277 9270 9265
2525.8096 9263 9262 9264 9266 9268 9271 9272 9273 9274 9275 9276 9277 9277
2532.0771 9276 9272 9269 9268 9270 9275 9280 9283 9282 9279 9274 9272 9274
2538.3445 9278 9282 9284 9282 9277 9269 9261 9254 9251 9251 9253 9256 9259
2544.6121 9261 9263 9265 9266 9268 9269 9270 9272 9274 9276 9278 9278 9275
2550.8796 9271 9266 9261 9258 9257 9258 9261 9263 9264 9264 9263 9261 9260
2557.1472 9258 9256 9254 9251 9248 9247 9247 9247 9247 9246 9244 9243 9243
2563.4146 9244 9244 9244 9243 9243 9244 9247 9248 9247 9240 9231 9222 9217
2569.6821 9218 9224 9232 9239 9243 9243 9239 9233 9225 9218 9211 9206 9204
2575.9497 9205 9207 9210 9211 9210 9207 9203 9199 9197 9196 9197 9199 9202
2582.2173 9205 9207 9207 9205 9200 9192 9182 9171 9163 9158 9155 9155 9156
2588.4849 9155 9154 9153 9152 9151 9151 9152 9152 9151 9149 9147 9145 9143
2594.7522 9143 9143 9145 9147 9149 9151 9153 9155 9158 9162 9167 9172 9177
2601.0198 9181 9182 9181 9177 9172 9167 9164 9161 9160 9160 9160 9160 9160
2607.2874 9161 9163 9165 9167 9169 9170 9169 9169 9168 9168 9166 9164 9162
2613.5549 9158 9155 9153 9152 9151 9150 9149 9147 9145 9143 9141 9140 9139
2619.8223 9138 9137 9136 9135 9134 9135 9135 9135 9133 9130 9127 9124 9122
2626.0898 9121 9122 9122 9121 9120 9118 9116 9114 9113 9111 9109 9107 9104
2632.3574 9102 9101 9099 9098 9097 9095 9093 9092 9092 9092 9092 9091 9088
2638.6250 9085 9083 9082 9084 9087 9089 9091 9090 9087 9083 9080 9078 9077
2644.8923 9076 9074 9070 9066 9062 9059 9057 9056 9055 9055 9054 9054 9054
2651.1599 9053 9053 9052 9052 9052 9052 9053 9054 9055 9056 9055 9053 9050
2657.4275 9047 9043 9041 9039 9038 9039 9038 9037 9035 9033 9030 9029 9027
2663.6951 9027 9027 9028 9028 9028 9028 9027 9025 9022 9019 9017 9016 9015
2669.9624 9014 9014 9014 9013 9011 9009 9007 9006 9004 9003 9003 9005 9006
2676.2300 9008 9008 9007 9004 8999 8995 8991 8987 8985 8983 8981 8980 8980
2682.4976 8979 8979 8978 8976 8974 8972 8970 8967 8965 8963 8960 8958 8955
2688.7651 8952 8949 8947 8946 8946 8946 8947 8948 8948 8947 8945 8942 8940
2695.0325 8939 8938 8938 8940 8944 8948 8953 8958 8961 8963 8963 8963 8963
2701.3000 8964 8965 8967 8970 8973 8975 8977 8976 8974 8971 8969 8966 8965
2707.5676 8965 8966 8966 8966 8965 8963 8961 8957 8954 8950 8946 8944 8943
2713.8352 8943 8942 8941 8939 8936 8933 8931 8930 8929 8930 8931 8932 8934
2720.1025 8935 8934 8932 8927 8922 8918 8916 8918 8922 8926 8928 8928 8926
2726.3701 8922 8919 8917 8918 8920 8924 8928 8932 8934 8934 8933 8931 8928
2732.6377 8926 8924 8922 8921 8920 8919 8919 8920 8922 8925 8927 8930 8931
2738.9053 8932 8932 8932 8933 8935 8937 8939 8940 8940 8940 8940 8938 8937
2745.1726 8936 8936 8937 8939 8941 8942 8941 8940 8937 8934 8932 8930 8930
2751.4402 8931 8931 8932 8933 8933 8933 8933 8934 8935 8937 8939 8941 8943
2757.7078 8944 8945 8944 8943 8942 8941 8941 8940 8939 8938 8935 8933 8931
2763.9753 8930 8931 8931 8932 8933 8932 8931 8929 8925 8921 8916 8910 8903
2770.2427 8897 8892 8888 8886 8885 8884 8884 8883 8882 8880 8879 8878 8878
2776.5103 8878 8878 8878 8877 8876 8875 8877 8881 8887 8895 8903 8910 8916
2782.7778 8921 8926 8931 8938 8945 8952 8958 8964 8970 8977 8984 8992 9000
2789.0454 9006 9012 9017 9022 9027 9032 9036 9038 9038 9038 9037 9038 9040
2795.3127 9043 9046 9048 9048 9046 9043 9039 9036 9033 9033 9034 9038 9043
2801.5803 9050 9056 9062 9065 9068 9070 9073 9077 9083 9090 9097 9102 9106
2807.8479 9108 9109 9108 9108 9109 9112 9116 9121 9127 9132 9137 9141 9144
2814.1155 9144 9142 9137 9132 9129 9127 9129 9131 9133 9131 9128 9124 9120
2820.3828 9117 9115 9113 9110 9105 9100 9094 9090 9087 9086 9085 9084 9084
2826.6504 9083 9080 9076 9072 9067 9062 9059 9057 9057 9058 9058 9059 9058
2832.9180 9055 9052 9050 9049 9049 9050 9051 9051 9050 9050 9050 9050 9050
2839.1855 9050 9049 9047 9046 9046 9046 9048 9048 9049 9048 9048 9048 9049
2845.4529 9050 9051 9051 9051 9050 9049 9047 9046 9046 9047 9050 9053 9056
2851.7205 9057 9058 9056 9053 9049 9045 9042 9041 9042 9044 9046 9047 9047
2857.9880 9047 9046 9045 9042 9039 9034 9030 9026 9024 9023 9024 9025 9027
2864.2556 9029 9031 9031 9031 9029 9027 9024 9023 9023 9025 9028 9032 9036
2870.5229 9039 9040 9041 9041 9042 9042 9044 9046 9049 9054 9059 9064 9068
2876.7905 9071 9074 9077 9082 9089 9096 9104 9113 9123 9136 9149 9163 9177
2883.0581 9189 9198 9206 9213 9220 9227 9235 9243 9251 9257 9263 9268 9273
2889.3257 9280 9289 9297 9305 9311 9315 9318 9322 9328 9333 9338 9342 9345
2895.5930 9348 9351 9357 9363 9370 9376 9380 9383 9386 9389 9393 9399 9404
2901.8606 9410 9415 9420 9425 9431 9436 9440 9443 9445 9449 9454 9462 9469
2908.1282 9474 9475 9473 9470 9469 9470 9474 9479 9482 9484 9485 9486 9490
2914.3958 9494 9498 9499 9498 9493 9487 9481 9476 9473 9470 9467 9463 9458
2920.6631 9454 9450 9448 9447 9446 9445 9442 9437 9432 9429 9428 9430 9435
2926.9307 9440 9446 9451 9453 9454 9452 9450 9447 9446 9445 9444 9444 9443
2933.1982 9441 9439 9438 9437 9436 9436 9436 9434 9431 9427 9423 9420 9417
2939.4658 9416 9416 9416 9416 9415 9414 9411 9407 9402 9396 9390 9385 9382
2945.7332 9381 9382 9384 9385 9386 9387 9387 9387 9387 9387 9388 9390 9390
2952.0007 9391 9390 9390 9390 9391 9393 9395 9397 9398 9398 9398 9399 9402
2958.2683 9407 9414 9422 9429 9435 9440 9444 9448 9452 9458 9463 9467 9469
2964.5359 9469 9469 9469 9472 9478 9487 9497 9508 9518 9526 9533 9539 9544
2970.8032 9550 9557 9563 9569 9575 9579 9583 9587 9591 9598 9606 9615 9623
2977.0708 9629 9633 9634 9636 9638 9643 9649 9656 9662 9666 9669 9671 9673
2983.3384 9675 9677 9679 9681 9684 9688 9694 9700 9705 9709 9710 9710 9711
2989.6060 9711 9712 9712 9711 9709 9706 9703 9699 9694 9690 9685 9680 9677
2995.8733 9676 9674 9673 9672 9671 9671 9672 9673 9676 9680 9685 9692 9697
3002.1409 9699 9697 9692 9684 9676 9671 9667 9665 9661 9658 9654 9653 9654
3008.4084 9656 9656 9653 9647 9639 9630 9622 9615 9608 9601 9594 9587 9580
3014.6760 9574 9568 9563 9557 9552 9548 9544 9540 9535 9529 9523 9518 9512
3020.9434 9507 9502 9497 9492 9486 9479 9472 9464 9455 9447 9439 9432 9427
3027.2109 9422 9417 9410 9401 9391 9382 9376 9373 9372 9373 9372 9369 9364
3033.4785 9357 9352 9350 9351 9354 9357 9360 9360 9359 9358 9357 9356 9357
3039.7461 9357 9355 9352 9348 9345 9344 9347 9352 9359 9365 9369 9372 9376
3046.0134 9380 9384 9389 9393 9396 9399 9402 9405 9410 9416 9422 9429 9437
3052.2810 9444 9452 9458 9463 9467 9469 9471 9475 9481 9490 9499 9507 9514
3058.5486 9518 9522 9526 9531 9536 9542 9547 9549 9550 9551 9551 9552 9554
3064.8162 9555 9554 9550 9542 9534 9527 9522 9519 9516 9512 9506 9498 9489
3071.0835 9482 9476 9471 9465 9459 9453 9449 9446 9445 9445 9443 9440 9437
3077.3511 9436 9440 9449 9460 9472 9482 9488 9492 9497 9504 9515 9528 9542
3083.6187 9556 9569 9581 9590 9597 9601 9605 9610 9618 9629 9640 9650 9656
3089.8862 9656 9652 9647 9642 9639 9638 9639 9642 9646 9651 9658 9666 9674
3096.1536 9681 9685 9687 9686 9684 9682 9680 9678 9676 9675 9674 9675 9677
3102.4211 9680 9684 9687 9688 9688 9687 9686 9687 9689 9690 9689 9684 9676
3108.6887 9666 9658 9651 9649 9650 9654 9660 9667 9674 9678 9680 9680 9677
3114.9563 9673 9669 9667 9667 9671 9675 9681 9686 9689 9691 9693 9695 9699
3121.2236 9704 9711 9719 9726 9733 9741 9750 9761 9774 9787 9799 9808 9815
3127.4912 9819 9821 9820 9817 9813 9808 9805 9804 9808 9816 9826 9838 9849
3133.7588 9860 9871 9880 9890 9899 9908 9916 9921 9922 9920 9916 9912 9909
3140.0264 9911 9915 9921 9929 9937 9944 9950 9955 9958 9958 9958 9957 9957
3146.2937 9959 9961 9963 9966 9970 9975 9981 9987 9991 9994 9995 9994 9992
3152.5613 9991 9990 9991 9993 9996 10000 10004 10006 10007 10007 10008 10009
3158.3467 10013 10017 10022 10025 10026 10024 10020 10015 10010 10008 10007
3163.6499 10010 10013 10018 10024 10030 10036 10041 10044 10046 10046 10045
3168.9534 10043 10041 10038 10035 10031 10029 10030 10037 10047 10059 10069
3174.2566 10074 10075 10072 10067 10062 10059 10057 10056 10056 10055 10054
3179.5598 10053 10052 10053 10055 10059 10062 10064 10062 10060 10057 10056
3184.8630 10057 10058 10059 10060 10059 10058 10058 10058 10058 10059 10059
3190.1665 10059 10058 10055 10051 10047 10044 10044 10048 10054 10061 10066
3195.4697 10069 10069 10066 10062 10060 10060 10063 10067 10072 10076 10078
3200.7729 10077 10074 10068 10062 10056 10051 10049 10049 10049 10049 10048
3206.0762 10044 10037 10030 10023 10018 10014 10012 10012 10012 10014 10016
3211.3796 10019 10020 10019 10014 10005 9994 9982 9973 9969 9970 9977 9986
3217.1650 9995 10001 10005 10006 10007 10008 10012 10015 10018 10018 10017
3222.4683 10015 10015 10017 10021 10024 10023 10016 10005 9993 9983 9979 9980
3228.2537 9983 9986 9985 9981 9975 9970 9967 9966 9966 9967 9968 9970 9972
3234.5212 9973 9975 9976 9976 9975 9973 9972 9972 9974 9978 9982 9987 9991
3240.7886 9994 9996 9999 10002 10005 10008 10012 10017 10022 10027 10029 10028
3246.5740 10023 10015 10007 10001 9997 9994 9992 9989 9985 9979 9970 9960 9950
3252.8416 9939 9930 9923 9917 9914 9913 9915 9921 9929 9941 9954 9967 9978
3259.1091 9987 9995 10002 10010 10018 10027 10035 10041 10044 10046 10048
3264.4124 10052 10057 10064 10073 10083 10092 10098 10101 10100 10096 10091
3269.7156 10088 10087 10087 10088 10088 10089 10089 10091 10093 10094 10093
3275.0190 10088 10082 10077 10075 10078 10084 10092 10098 10102 10103 10104
3280.3223 10103 10103 10103 10103 10101 10098 10095 10094 10095 10099 10103
3285.6255 10105 10103 10098 10089 10080 10073 10068 10065 10063 10062 10060
3290.9287 10059 10062 10067 10075 10084 10092 10095 10094 10089 10082 10077
3296.2322 10075 10075 10078 10080 10079 10075 10070 10064 10058 10052 10045
3301.5354 10036 10027 10020 10018 10021 10028 10037 10044 10049 10050 10048
3306.8386 10046 10044 10043 10044 10047 10048 10048 10044 10038 10032 10027
3312.1418 10025 10027 10031 10033 10033 10030 10026 10021 10018 10015 10014
3317.4453 10013 10011 10008 10005 10001 9996 9992 9989 9988 9989 9991 9993
3323.2307 9994 9993 9990 9986 9981 9974 9967 9961 9956 9954 9953 9954 9955
3329.4980 9957 9959 9959 9959 9956 9951 9945 9941 9938 9937 9937 9936 9932
3335.7656 9927 9921 9915 9909 9903 9898 9893 9888 9881 9874 9867 9861 9858
3342.0332 9857 9858 9859 9861 9860 9858 9853 9848 9843 9839 9836 9833 9828
3348.3008 9820 9810 9800 9789 9780 9771 9763 9755 9746 9737 9729 9722 9716
3354.5681 9711 9704 9698 9691 9684 9677 9669 9660 9649 9635 9620 9604 9587
3360.8357 9570 9553 9537 9521 9505 9487 9468 9447 9424 9399 9373 9346 9316
3367.1033 9286 9254 9222 9190 9157 9121 9081 9036 8987 8936 8885 8834 8782
3373.3708 8728 8671 8613 8556 8502 8456 8420 8396 8383 8382 8392 8415 8452
3379.6382 8503 8569 8644 8724 8803 8874 8934 8981 9015 9036 9044 9039 9026
3385.9058 9008 8989 8975 8968 8971 8985 9010 9049 9100 9163 9236 9317 9404
3392.1733 9493 9581 9662 9732 9790 9836 9871 9901 9928 9954 9980 10004 10025
3398.4409 10042 10055 10065 10072 10076 10079 10082 10085 10089 10093 10097
3403.7441 10099 10101 10101 10102 10102 10102 10101 10097 10093 10090 10088
3409.0474 10090 10094 10099 10103 10106 10106 10106 10104 10102 10099 10095
3414.3506 10090 10086 10083 10081 10081 10080 10078 10074 10070 10066 10065
3419.6541 10067 10068 10069 10066 10061 10055 10048 10042 10037 10031 10026
3424.9573 10020 10015 10012 10012 10014 10017 10019 10019 10018 10015 10012
3430.2605 10009 10005 10000 9993 9986 9978 9971 9966 9962 9960 9958 9955 9951
3436.5281 9945 9938 9931 9925 9920 9916 9914 9912 9911 9909 9905 9899 9892
3442.7957 9887 9884 9883 9884 9884 9884 9882 9879 9874 9867 9860 9851 9844
3449.0630 9837 9833 9831 9830 9828 9822 9812 9798 9783 9769 9759 9753 9749
3455.3306 9746 9740 9731 9721 9712 9705 9700 9697 9692 9685 9674 9662 9649
3461.5981 9636 9625 9616 9608 9600 9590 9577 9562 9544 9524 9504 9484 9463
3467.8657 9442 9422 9401 9381 9360 9338 9315 9292 9268 9243 9216 9187 9155
3474.1331 9123 9090 9058 9026 8995 8963 8934 8908 8888 8875 8868 8866 8865
3480.4006 8867 8873 8883 8899 8920 8943 8967 8993 9021 9053 9088 9124 9158
3486.6682 9188 9215 9238 9260 9279 9296 9309 9315 9314 9306 9293 9276 9257
3492.9358 9238 9219 9202 9185 9170 9155 9141 9129 9121 9119 9126 9143 9170
3499.2031 9207 9253 9304 9361 9420 9482 9543 9601 9654 9701 9740 9773 9799
3505.4707 9819 9834 9845 9854 9862 9871 9880 9888 9894 9900 9906 9913 9920
3511.7383 9926 9929 9927 9924 9920 9918 9920 9923 9926 9927 9925 9920 9914
3518.0059 9908 9902 9896 9893 9890 9890 9891 9894 9897 9901 9905 9907 9906
3524.2732 9901 9894 9885 9877 9870 9866 9863 9862 9862 9862 9861 9860 9856
3530.5408 9851 9846 9842 9839 9839 9840 9840 9838 9833 9826 9820 9816 9816
3536.8083 9819 9823 9826 9825 9822 9818 9812 9807 9802 9797 9793 9789 9788
3543.0759 9790 9793 9797 9799 9796 9790 9782 9775 9770 9767 9765 9763 9762
3549.3433 9762 9764 9767 9771 9773 9773 9771 9768 9764 9761 9757 9753 9749
3555.6108 9743 9737 9732 9726 9722 9720 9720 9722 9726 9731 9734 9734 9733
3561.8784 9730 9726 9722 9718 9713 9708 9702 9694 9684 9674 9669 9670 9675
3568.1460 9682 9687 9689 9690 9690 9691 9693 9695 9696 9695 9692 9688 9684
3574.4136 9681 9680 9681 9684 9687 9688 9686 9682 9676 9671 9669 9670 9674
3580.6809 9678 9680 9680 9678 9673 9668 9662 9656 9651 9649 9650 9654 9657
3586.9485 9658 9655 9651 9647 9645 9642 9637 9630 9622 9616 9614 9617 9624
3593.2161 9630 9634 9635 9633 9629 9625 9621 9619 9618 9620 9625 9631 9635
3599.4836 9635 9631 9624 9616 9610 9607 9608 9612 9617 9619 9618 9612 9602
3605.7510 9590 9580 9575 9576 9582 9589 9596 9600 9602 9600 9597 9594 9591
3612.0186 9589 9589 9588 9585 9581 9576 9574 9574 9577 9580 9583 9585 9586
3618.2861 9587 9588 9588 9584 9578 9569 9560 9553 9549 9548 9550 9555 9561
3624.5537 9566 9568 9563 9551 9533 9509 9485 9469 9472 9495 9523 9541 9547
3630.8210 9546 9540 9530 9518 9505 9494 9490 9494 9504 9515 9525 9529 9529
3637.0886 9524 9517 9509 9504 9501 9501 9504 9507 9511 9513 9512 9508 9502
3643.3562 9496 9490 9486 9482 9480 9478 9479 9483 9489 9493 9492 9484 9472
3649.6238 9460 9452 9452 9457 9463 9469 9473 9475 9476 9474 9470 9464 9456
3655.8911 9447 9441 9438 9437 9438 9439 9442 9445 9449 9452 9454 9455 9455
3662.1587 9454 9453 9450 9448 9445 9441 9435 9429 9422 9416 9413 9413 9418
3668.4263 9425 9435 9445 9454 9460 9461 9457 9448 9436 9422 9407 9391 9380
3674.6938 9379 9397 9420 9434 9437 9435 9430 9426 9425 9427 9432 9436 9437
3680.9612 9434 9428 9421 9416 9414 9416 9419 9422 9422 9418 9410 9402 9396
3687.2288 9396 9404 9414 9421 9419 9413 9409 9410 9418 9427 9433 9433 9430
3693.4963 9426 9421 9418 9416 9416 9418 9421 9424 9425 9423 9418 9411 9407
3699.7639 9405 9409 9417 9429 9440 9447 9447 9440 9430 9418 9407 9400 9397
3706.0313 9399 9401 9402 9402 9403 9406 9411 9414 9413 9407 9397 9392 9395
3712.2988 9405 9415 9423 9426 9427 9428 9430 9431 9431 9428 9423 9419 9415
3718.5664 9414 9412 9409 9404 9398 9392 9391 9393 9397 9398 9394 9386 9378
3724.8340 9372 9370 9372 9377 9384 9391 9398 9403 9405 9403 9397 9389 9384
3731.1013 9384 9390 9399 9404 9403 9399 9397 9402 9414 9427 9429 9421 9409
3737.3689 9399 9394 9396 9401 9407 9413 9418 9421 9421 9418 9411 9399 9381
3743.6365 9360 9347 9351 9363 9373 9379 9383 9389 9401 9419 9441 9457 9455
3749.9041 9437 9412 9389 9378 9380 9393 9406 9412 9414 9414 9416 9420 9426
3756.1714 9431 9430 9422 9406 9388 9372 9365 9369 9380 9393 9403 9409 9414
3762.4390 9417 9420 9421 9421 9420 9417 9416 9415 9413 9409 9404 9399 9396
3768.7065 9398 9408 9420 9429 9430 9425 9419 9413 9411 9410 9411 9413 9417
3774.9741 9421 9424 9426 9424 9420 9413 9408 9407 9410 9417 9424 9430 9432
3781.2415 9433 9433 9432 9430 9427 9423 9420 9417 9415 9416 9418 9422 9426
3787.5090 9432 9436 9439 9441 9441 9439 9435 9429 9422 9416 9413 9413 9415
3793.7766 9417 9416 9414 9411 9409 9411 9416 9423 9428 9428 9423 9412 9398
3800.0442 9381 9368 9368 9384 9405 9420 9425 9424 9419 9414 9410 9408 9408
3806.3115 9410 9413 9415 9418 9422 9425 9428 9430 9428 9425 9422 9420 9421
3812.5791 9421 9420 9415 9406 9396 9389 9393 9409 9425 9433 9431 9423 9410
3818.8467 9396 9385 9382 9392 9413 9434 9444 9442 9435 9427 9420 9416 9415
3825.1143 9416 9418 9419 9418 9416 9414 9414 9414 9413 9410 9406 9404 9407
3831.3816 9415 9425 9431 9432 9429 9423 9417 9413 9409 9406 9403 9402 9405
3837.6492 9411 9418 9420 9419 9415 9413 9411 9408 9405 9401 9397 9396 9400
3843.9167 9407 9414 9421 9426 9429 9431 9432 9430 9425 9418 9410 9402 9394
3850.1843 9387 9379 9371 9361 9352 9349 9359 9379 9397 9408 9411 9412 9413
3856.4517 9416 9419 9423 9425 9425 9424 9421 9419 9417 9416 9415 9414 9414
3862.7192 9413 9413 9416 9422 9431 9438 9440 9437 9431 9425 9420 9417 9415
3868.9868 9415 9418 9421 9425 9426 9424 9420 9412 9403 9398 9402 9413 9426
3875.2544 9435 9438 9437 9433 9429 9425 9422 9418 9416 9417 9421 9426 9430
3881.5217 9429 9426 9422 9417 9414 9413 9415 9420 9426 9432 9436 9436 9435
3887.7893 9432 9427 9420 9412 9404 9400 9403 9412 9423 9431 9434 9433 9431
3894.0569 9430 9432 9434 9435 9433 9427 9419 9413 9411 9415 9423 9429 9429
3900.3245 9423 9414 9406 9404 9407 9415 9422 9428 9430 9429 9428 9426 9425
3906.5918 9424 9424 9425 9428 9432 9437 9442 9446 9448 9448 9445 9441 9437
3912.8594 9433 9430 9427 9423 9418 9414 9410 9409 9412 9419 9428 9437 9445
3919.1270 9451 9453 9451 9446 9440 9435 9431 9426 9420 9415 9412 9414 9421
3925.3945 9431 9438 9443 9443 9440 9436 9431 9428 9424 9421 9417 9415 9416
3931.6619 9422 9430 9438 9443 9444 9441 9436 9431 9429 9428 9430 9433 9438
3937.9294 9442 9447 9450 9452 9451 9449 9446 9441 9436 9434 9434 9436 9439
3944.1970 9441 9442 9440 9436 9432 9428 9425 9424 9425 9427 9430 9434 9438
3950.4646 9441 9443 9444 9445 9446 9447 9446 9444 9442 9440 9439 9440 9441
3956.7319 9441 9440 9437 9434 9431 9428 9426 9425 9426 9430 9436 9442 9447
3962.9995 9450 9451 9450 9449 9447 9446 9445 9445 9447 9448 9449 9448 9444
3969.2671 9440 9435 9433 9433 9434 9435 9435 9435 9434 9434 9435 9436 9437
3975.5347 9437 9437 9437 9439 9443 9447 9450 9450 9447 9442 9437 9434 9431
3981.8020 9430 9428 9428 9429 9432 9437 9443 9448 9450 9450 9446 9441 9436
3988.0696 9433 9432 9434 9436 9437 9436 9433 9431 9429 9430 9433 9435 9437
3994.3372 9438 9440 9442 9445 9447 9448 9447 9443 9439 9435 9434 9434 9436
##END= 
